"time" "EDA.raw" "ECG.raw"
"1" 0.1035821 533 780
"2" 0.1051981 533 780
"3" 0.1071363 533 780
"4" 0.1087531 533 780
"5" 0.1102789 533 780
"6" 0.1118324 533 780
"7" 0.1138269 533 780
"8" 0.1154277 533 780
"9" 0.1168736 533 780
"10" 0.118411 533 780
"11" 0.1198729 533 780
"12" 0.1218827 533 780
"13" 0.1234222 533 780
"14" 0.1251398 533 780
"15" 0.1265618 533 780
"16" 0.1282488 533 780
"17" 0.130361 533 780
"18" 0.1319062 533 780
"19" 0.1333051 533 780
"20" 0.1347658 533 780
"21" 0.1362124 533 780
"22" 0.1380615 533 780
"23" 0.1395599 533 780
"24" 0.1409827 533 780
"25" 0.1424647 533 780
"26" 0.1441095 533 780
"27" 0.1464129 533 780
"28" 0.1486002 533 780
"29" 0.1503312 533 780
"30" 0.1521178 533 780
"31" 0.1540785 533 780
"32" 0.1556869 533 780
"33" 0.1572984 533 780
"34" 0.1588452 533 780
"35" 0.1604043 533 780
"36" 0.1624693 533 780
"37" 0.1640227 533 780
"38" 0.1655138 533 780
"39" 0.1669957 533 780
"40" 0.1687904 533 780
"41" 0.1706811 533 780
"42" 0.1721125 533 780
"43" 0.1736893 533 780
"44" 0.1861285 533 780
"45" 0.1876705 533 780
"46" 0.1894113 533 780
"47" 0.1908892 533 780
"48" 0.1922679 533 780
"49" 0.1939972 533 780
"50" 0.195441 533 780
"51" 0.196856 533 780
"52" 0.1983176 533 780
"53" 0.1997151 533 780
"54" 0.2011637 533 780
"55" 0.2032893 533 780
"56" 0.2048098 533 780
"57" 0.2062405 533 780
"58" 0.2080125 533 780
"59" 0.2105602 533 780
"60" 0.2122599 533 780
"61" 0.2137808 533 780
"62" 0.2154123 533 780
"63" 0.2169028 533 780
"64" 0.2191235 533 780
"65" 0.220648 533 780
"66" 0.2220503 533 780
"67" 0.2236827 533 780
"68" 0.226259 533 780
"69" 0.2280288 533 780
"70" 0.229728 533 780
"71" 0.2312844 533 780
"72" 0.2327644 533 780
"73" 0.2345994 533 780
"74" 0.2361446 533 780
"75" 0.2375478 533 780
"76" 0.2390077 533 780
"77" 0.2405585 533 780
"78" 0.2425837 533 780
"79" 0.2441588 533 780
"80" 0.2456835 533 780
"81" 0.2473004 533 784
"82" 0.2493877 532 195
"83" 0.2514071 532 195
"84" 0.252963 532 195
"85" 0.2543675 532 195
"86" 0.2557568 532 195
"87" 0.2572587 532 195
"88" 0.2592091 532 195
"89" 0.2606437 532 195
"90" 0.2621189 532 195
"91" 0.2636456 532 195
"92" 0.2651161 532 195
"93" 0.2669096 532 195
"94" 0.2687153 532 195
"95" 0.2707163 532 195
"96" 0.2724252 532 195
"97" 0.2746686 532 195
"98" 0.2762408 532 195
"99" 0.2776392 532 195
"100" 0.2790707 532 195
"101" 0.2805294 532 195
"102" 0.2824422 532 195
"103" 0.2839898 532 195
"104" 0.2855108 532 195
"105" 0.2869701 532 195
"106" 0.2886659 532 195
"107" 0.2904933 532 195
"108" 0.2919563 532 195
"109" 0.2934198 532 195
"110" 0.2948484 532 195
"111" 0.2962813 532 195
"112" 0.2981263 532 195
"113" 0.2995529 532 195
"114" 0.3010247 532 195
"115" 0.3025468 532 195
"116" 0.3039884 532 195
"117" 0.3060264 532 195
"118" 0.3075146 532 195
"119" 0.3092532 532 195
"120" 0.3107006 532 195
"121" 0.312161 532 195
"122" 0.3140959 532 195
"123" 0.3156185 532 195
"124" 0.3170406 532 195
"125" 0.3186037 532 195
"126" 0.3200921 532 195
"127" 0.3219714 532 195
"128" 0.3234068 532 195
"129" 0.3249015 532 195
"130" 0.3370806 532 195
"131" 0.3393746 532 195
"132" 0.3408425 532 195
"133" 0.3422931 532 195
"134" 0.3439327 532 195
"135" 0.3457648 532 195
"136" 0.3472843 532 195
"137" 0.3491117 532 195
"138" 0.3509635 532 195
"139" 0.3525567 532 195
"140" 0.3540556 532 195
"141" 0.3555359 532 195
"142" 0.3571015 532 195
"143" 0.358562 532 195
"144" 0.3600175 532 195
"145" 0.3615048 532 195
"146" 0.3629685 532 195
"147" 0.364465 532 195
"148" 0.3659808 532 195
"149" 0.3674743 532 195
"150" 0.3692442 532 195
"151" 0.3707436 532 195
"152" 0.3721451 532 195
"153" 0.3735387 532 195
"154" 0.3749202 532 195
"155" 0.3763607 532 195
"156" 0.3779154 532 195
"157" 0.3796903 532 195
"158" 0.3814588 532 195
"159" 0.3831742 532 195
"160" 0.3850485 532 195
"161" 0.3866581 532 195
"162" 0.3883164 532 195
"163" 0.3898525 532 195
"164" 0.3912668 532 195
"165" 0.3926546 532 195
"166" 0.3940664 532 195
"167" 0.3957089 532 195
"168" 0.3974093 532 195
"169" 0.3988731 532 195
"170" 0.4003614 532 195
"171" 0.4019112 532 195
"172" 0.4033202 532 195
"173" 0.4047289 532 195
"174" 0.4061415 532 195
"175" 0.4075534 532 195
"176" 0.4092632 532 195
"177" 0.4107974 532 195
"178" 0.4123006 532 195
"179" 0.4139788 532 233
"180" 0.4157039 532 776
"181" 0.4172166 532 776
"182" 0.4187476 532 776
"183" 0.4202672 532 776
"184" 0.4217069 532 776
"185" 0.4231224 532 776
"186" 0.4245436 532 776
"187" 0.4259698 532 776
"188" 0.4273809 532 776
"189" 0.428941 532 776
"190" 0.4305194 532 776
"191" 0.431958 532 776
"192" 0.433416 532 776
"193" 0.4348621 532 776
"194" 0.4362982 532 776
"195" 0.4377497 532 776
"196" 0.4392224 532 776
"197" 0.4407141 532 776
"198" 0.4421839 532 776
"199" 0.4436446 532 776
"200" 0.4451047 532 776
"201" 0.4465693 532 776
"202" 0.4483287 532 776
"203" 0.4497865 532 776
"204" 0.4515159 532 776
"205" 0.4531397 532 776
"206" 0.4545224 532 776
"207" 0.455905 532 776
"208" 0.4573239 532 776
"209" 0.4587552 532 776
"210" 0.4602366 532 776
"211" 0.4618133 532 776
"212" 0.463385 532 776
"213" 0.464822 532 776
"214" 0.466245 532 776
"215" 0.4676562 532 776
"216" 0.4693911 532 776
"217" 0.4708804 532 776
"218" 0.472281 532 776
"219" 0.4738039 532 776
"220" 0.4752855 532 776
"221" 0.4873177 532 776
"222" 0.4890497 532 776
"223" 0.4904498 532 776
"224" 0.4918666 532 776
"225" 0.4932378 532 776
"226" 0.4946487 532 776
"227" 0.496161 532 776
"228" 0.4977007 532 776
"229" 0.4992327 532 776
"230" 0.5008135 532 776
"231" 0.5028438 532 776
"232" 0.5042763 532 776
"233" 0.505676 532 776
"234" 0.5071638 532 776
"235" 0.5092847 532 776
"236" 0.5115479 532 776
"237" 0.5135047 532 776
"238" 0.5151494 532 776
"239" 0.5167475 532 776
"240" 0.5184621 532 776
"241" 0.5205656 532 776
"242" 0.522221 532 776
"243" 0.5236689 532 776
"244" 0.5250682 532 776
"245" 0.5265123 532 776
"246" 0.5282094 532 776
"247" 0.529622 532 776
"248" 0.5310941 532 776
"249" 0.5325717 532 776
"250" 0.5340058 532 776
"251" 0.5355306 532 776
"252" 0.5369428 532 776
"253" 0.5384297 532 776
"254" 0.5401399 532 776
"255" 0.5417637 532 776
"256" 0.5435011 531 753
"257" 0.5455135 531 208
"258" 0.5472953 531 208
"259" 0.5492226 531 208
"260" 0.5509644 531 208
"261" 0.5527716 531 208
"262" 0.5545241 531 208
"263" 0.5562467 531 208
"264" 0.5579833 531 208
"265" 0.5597703 531 208
"266" 0.56139 531 208
"267" 0.5628088 531 208
"268" 0.5641996 531 208
"269" 0.5656319 531 208
"270" 0.5670754 531 208
"271" 0.5691288 531 208
"272" 0.5708026 531 208
"273" 0.5723342 531 208
"274" 0.5738669 531 208
"275" 0.5753887 531 208
"276" 0.5768673 531 208
"277" 0.5782952 531 208
"278" 0.5797096 531 208
"279" 0.5811251 531 208
"280" 0.5825391 531 208
"281" 0.5839974 531 208
"282" 0.5857157 531 208
"283" 0.5873296 531 208
"284" 0.5891415 531 208
"285" 0.5907875 531 208
"286" 0.5922918 531 208
"287" 0.5936943 531 208
"288" 0.5951847 531 208
"289" 0.5966399 531 208
"290" 0.598043 531 208
"291" 0.5994745 531 208
"292" 0.6009467 531 208
"293" 0.6025305 531 208
"294" 0.6040059 531 208
"295" 0.6054207 531 208
"296" 0.6068098 531 208
"297" 0.6084373 531 208
"298" 0.6098247 531 208
"299" 0.6112295 531 208
"300" 0.6126215 531 208
"301" 0.6141123 531 208
"302" 0.6158361 531 208
"303" 0.6174309 531 208
"304" 0.6190634 531 208
"305" 0.620526 531 208
"306" 0.6219661 531 208
"307" 0.6233796 531 208
"308" 0.6247799 531 208
"309" 0.6263428 531 208
"310" 0.6386192 531 208
"311" 0.6405127 531 208
"312" 0.6420273 531 208
"313" 0.6434732 531 208
"314" 0.6450953 531 208
"315" 0.6465003 531 208
"316" 0.6482715 531 208
"317" 0.6499378 531 208
"318" 0.6516769 531 208
"319" 0.6533081 531 208
"320" 0.6547832 531 208
"321" 0.6561767 531 208
"322" 0.6575701 531 208
"323" 0.6589578 531 208
"324" 0.660412 531 208
"325" 0.6618517 531 208
"326" 0.6632421 531 208
"327" 0.6646342 531 208
"328" 0.6660271 531 208
"329" 0.6674938 531 208
"330" 0.6692584 531 208
"331" 0.6707758 531 208
"332" 0.6722456 531 208
"333" 0.6736486 531 208
"334" 0.675045 531 208
"335" 0.6764984 531 208
"336" 0.6779128 531 208
"337" 0.6793112 531 208
"338" 0.6807085 531 208
"339" 0.682366 531 208
"340" 0.684059 531 208
"341" 0.6856565 531 208
"342" 0.6870816 531 208
"343" 0.6886968 531 208
"344" 0.6900922 531 208
"345" 0.6915305 531 208
"346" 0.69297 531 208
"347" 0.6944376 531 208
"348" 0.6959077 531 208
"349" 0.6973177 531 208
"350" 0.6987173 531 208
"351" 0.7001037 531 208
"352" 0.7016363 530 775
"353" 0.7031397 530 775
"354" 0.7045485 530 775
"355" 0.7060316 530 775
"356" 0.7074363 530 775
"357" 0.7090839 530 775
"358" 0.7105572 530 775
"359" 0.7119924 530 775
"360" 0.7135802 530 775
"361" 0.7153629 530 775
"362" 0.7169736 530 775
"363" 0.7184635 530 775
"364" 0.71994 530 775
"365" 0.7213896 530 775
"366" 0.722763 530 775
"367" 0.7241506 530 775
"368" 0.7255128 530 775
"369" 0.7268732 530 775
"370" 0.7286845 530 775
"371" 0.7305638 530 775
"372" 0.7321483 530 775
"373" 0.7337688 530 775
"374" 0.7354345 530 775
"375" 0.7369335 530 775
"376" 0.7383221 530 775
"377" 0.7397034 530 775
"378" 0.7411227 530 775
"379" 0.7425905 530 775
"380" 0.7442685 530 775
"381" 0.745943 530 775
"382" 0.747493 530 775
"383" 0.7492368 530 775
"384" 0.7507351 530 775
"385" 0.7522896 530 775
"386" 0.7537029 530 775
"387" 0.7551247 530 775
"388" 0.7566139 530 775
"389" 0.758009 530 775
"390" 0.759473 530 775
"391" 0.7609373 530 775
"392" 0.7624216 530 775
"393" 0.7638196 530 775
"394" 0.7652125 530 775
"395" 0.7666175 530 775
"396" 0.7682425 530 775
"397" 0.7697209 530 775
"398" 0.7711282 530 775
"399" 0.7727557 530 775
"400" 0.7743359 530 775
"401" 0.7758829 530 775
"402" 0.7775484 530 775
"403" 0.7895319 530 775
"404" 0.7912739 530 775
"405" 0.7928032 530 775
"406" 0.7942988 530 775
"407" 0.7957019 530 775
"408" 0.7971864 530 775
"409" 0.798647 530 775
"410" 0.8000829 530 775
"411" 0.8015839 530 775
"412" 0.8030134 530 775
"413" 0.8044059 530 775
"414" 0.8058754 530 775
"415" 0.8073308 530 775
"416" 0.8090715 530 775
"417" 0.8105791 530 775
"418" 0.8120259 530 775
"419" 0.8134164 530 775
"420" 0.8147951 530 775
"421" 0.8161792 530 775
"422" 0.817578 530 775
"423" 0.8190513 530 775
"424" 0.8204519 530 775
"425" 0.8219246 530 775
"426" 0.8234147 530 775
"427" 0.8248643 530 775
"428" 0.8263175 530 775
"429" 0.8277496 530 775
"430" 0.8294877 530 775
"431" 0.8308907 530 775
"432" 0.83229 530 775
"433" 0.8337296 530 775
"434" 0.835198 530 775
"435" 0.8366727 530 775
"436" 0.8380676 530 775
"437" 0.8396102 530 775
"438" 0.8413529 530 775
"439" 0.8433012 528 788
"440" 0.845113 528 244
"441" 0.8466721 528 244
"442" 0.84834 528 244
"443" 0.8498382 528 244
"444" 0.8512886 528 244
"445" 0.8529712 528 244
"446" 0.8545981 528 244
"447" 0.8566255 528 244
"448" 0.858455 528 244
"449" 0.8599577 528 244
"450" 0.8614641 528 244
"451" 0.8629168 528 244
"452" 0.864384 528 244
"453" 0.8659528 528 244
"454" 0.8674725 528 244
"455" 0.8693024 528 244
"456" 0.8707897 528 244
"457" 0.8723158 528 244
"458" 0.8737895 528 244
"459" 0.8751785 528 244
"460" 0.8765678 528 244
"461" 0.8779342 528 244
"462" 0.8793388 528 244
"463" 0.8808288 528 244
"464" 0.8822743 528 244
"465" 0.8836818 528 244
"466" 0.8851736 528 244
"467" 0.8867339 528 244
"468" 0.8884392 528 244
"469" 0.8898634 528 244
"470" 0.8912668 528 244
"471" 0.8926762 528 244
"472" 0.8940774 528 244
"473" 0.8954927 528 244
"474" 0.8969563 528 244
"475" 0.8983836 528 244
"476" 0.8998394 528 244
"477" 0.9013019 528 244
"478" 0.9031765 528 244
"479" 0.9046516 528 244
"480" 0.9060678 528 244
"481" 0.9075381 528 244
"482" 0.9092168 528 244
"483" 0.9106852 528 244
"484" 0.9121423 528 244
"485" 0.9135875 528 244
"486" 0.9150527 528 244
"487" 0.9165102 528 244
"488" 0.9180038 528 244
"489" 0.919515 528 244
"490" 0.9209776 528 244
"491" 0.9223748 528 244
"492" 0.923904 528 244
"493" 0.9253751 528 244
"494" 0.9267632 528 244
"495" 0.928468 528 244
"496" 0.9401026 528 244
"497" 0.9416355 528 244
"498" 0.9430777 528 244
"499" 0.9444865 528 244
"500" 0.9458843 528 244
"501" 0.9473152 528 244
"502" 0.9489673 528 244
"503" 0.9503798 528 244
"504" 0.9519089 528 244
"505" 0.9534488 528 244
"506" 0.954944 528 244
"507" 0.9563544 528 244
"508" 0.9577437 528 244
"509" 0.9591902 528 244
"510" 0.9606703 528 244
"511" 0.9620638 528 244
"512" 0.9634999 528 244
"513" 0.9649652 528 244
"514" 0.9667546 528 244
"515" 0.9684928 528 244
"516" 0.9699525 528 244
"517" 0.9714863 528 244
"518" 0.9729691 528 244
"519" 0.9744453 528 244
"520" 0.9758949 528 244
"521" 0.9772685 528 244
"522" 0.9786848 528 244
"523" 0.9801211 528 244
"524" 0.9815544 528 244
"525" 0.9831191 528 244
"526" 0.9849845 528 244
"527" 0.9867626 528 244
"528" 0.988771 528 244
"529" 0.9906558 528 244
"530" 0.9924638 528 244
"531" 0.9946207 527 859
"532" 0.9965872 527 859
"533" 0.9987479 527 859
"534" 1.00107 527 859
"535" 1.003138 527 859
"536" 1.005135 527 859
"537" 1.006804 527 859
"538" 1.008573 527 859
"539" 1.010071 527 859
"540" 1.011592 527 859
"541" 1.013113 527 859
"542" 1.014989 527 859
"543" 1.016721 527 859
"544" 1.018298 527 859
"545" 1.020101 527 859
"546" 1.021774 527 859
"547" 1.023355 527 859
"548" 1.024788 527 859
"549" 1.026312 527 859
"550" 1.027751 527 859
"551" 1.029441 527 859
"552" 1.031052 527 859
"553" 1.032678 527 859
"554" 1.034188 527 859
"555" 1.03571 527 859
"556" 1.037208 527 859
"557" 1.038592 527 859
"558" 1.039991 527 859
"559" 1.041425 527 859
"560" 1.042796 527 859
"561" 1.044181 527 859
"562" 1.045598 527 859
"563" 1.046997 527 859
"564" 1.048624 527 859
"565" 1.050011 527 859
"566" 1.051491 527 859
"567" 1.053014 527 859
"568" 1.0544 527 859
"569" 1.05578 527 859
"570" 1.057167 527 859
"571" 1.058626 527 859
"572" 1.060098 527 859
"573" 1.061459 527 859
"574" 1.062877 527 859
"575" 1.064368 527 859
"576" 1.065811 527 859
"577" 1.06724 527 859
"578" 1.068942 527 859
"579" 1.070517 527 859
"580" 1.072003 527 859
"581" 1.073433 527 859
"582" 1.074836 527 859
"583" 1.076234 527 859
"584" 1.077609 527 859
"585" 1.079058 527 859
"586" 1.091182 527 859
"587" 1.093031 527 859
"588" 1.09484 527 859
"589" 1.096419 527 859
"590" 1.097822 527 859
"591" 1.099312 527 859
"592" 1.10071 527 859
"593" 1.102184 527 859
"594" 1.103632 527 859
"595" 1.105195 527 859
"596" 1.106622 527 859
"597" 1.108271 527 859
"598" 1.109734 527 859
"599" 1.11128 527 859
"600" 1.112837 527 859
"601" 1.114314 527 859
"602" 1.115695 527 859
"603" 1.117079 527 859
"604" 1.118512 527 859
"605" 1.119962 527 859
"606" 1.121356 527 859
"607" 1.122733 527 859
"608" 1.124117 527 859
"609" 1.125525 527 859
"610" 1.127254 527 859
"611" 1.129071 527 859
"612" 1.130539 527 859
"613" 1.132055 527 859
"614" 1.133504 527 859
"615" 1.134995 527 859
"616" 1.136514 527 859
"617" 1.137897 527 859
"618" 1.13928 527 859
"619" 1.140687 527 859
"620" 1.142141 527 859
"621" 1.143574 527 859
"622" 1.145391 526 219
"623" 1.147139 526 219
"624" 1.148908 526 219
"625" 1.150321 526 219
"626" 1.151745 526 219
"627" 1.153191 526 219
"628" 1.154709 526 219
"629" 1.156216 526 219
"630" 1.157889 526 219
"631" 1.159298 526 219
"632" 1.160675 526 219
"633" 1.162052 526 219
"634" 1.163438 526 219
"635" 1.164831 526 219
"636" 1.166224 526 219
"637" 1.167597 526 219
"638" 1.16932 526 219
"639" 1.170734 526 219
"640" 1.172212 526 219
"641" 1.173626 526 219
"642" 1.175009 526 219
"643" 1.176413 526 219
"644" 1.17779 526 219
"645" 1.179245 526 219
"646" 1.18068 526 219
"647" 1.182104 526 219
"648" 1.183621 526 219
"649" 1.185087 526 219
"650" 1.186627 526 219
"651" 1.188363 526 219
"652" 1.189883 526 219
"653" 1.191341 526 219
"654" 1.192765 526 219
"655" 1.194161 526 219
"656" 1.195642 526 219
"657" 1.19711 526 219
"658" 1.198507 526 219
"659" 1.199951 526 219
"660" 1.201496 526 219
"661" 1.202994 526 219
"662" 1.204416 526 219
"663" 1.205993 526 219
"664" 1.207462 526 219
"665" 1.209164 526 219
"666" 1.210624 526 219
"667" 1.212087 526 219
"668" 1.213578 526 219
"669" 1.215047 526 219
"670" 1.216572 526 219
"671" 1.218036 526 219
"672" 1.2195 526 219
"673" 1.220909 526 219
"674" 1.222378 526 219
"675" 1.223775 526 219
"676" 1.225331 526 219
"677" 1.226753 526 219
"678" 1.228442 526 219
"679" 1.229994 526 219
"680" 1.242649 526 219
"681" 1.24427 526 219
"682" 1.245687 526 219
"683" 1.247081 526 219
"684" 1.248679 526 219
"685" 1.250831 526 219
"686" 1.252654 526 219
"687" 1.254204 526 219
"688" 1.255694 526 219
"689" 1.257222 526 219
"690" 1.258635 526 219
"691" 1.260086 526 219
"692" 1.26153 526 219
"693" 1.262931 526 219
"694" 1.264331 526 219
"695" 1.26571 526 219
"696" 1.267087 526 219
"697" 1.268836 526 219
"698" 1.270621 526 219
"699" 1.272123 526 219
"700" 1.273616 526 219
"701" 1.275002 526 219
"702" 1.276396 526 219
"703" 1.277777 526 219
"704" 1.279261 526 219
"705" 1.280765 526 219
"706" 1.282166 526 219
"707" 1.283538 526 219
"708" 1.285244 526 219
"709" 1.28703 525 755
"710" 1.288822 525 755
"711" 1.290252 525 755
"712" 1.291658 525 755
"713" 1.29304 525 755
"714" 1.294421 525 755
"715" 1.295824 525 755
"716" 1.297303 525 755
"717" 1.298699 525 755
"718" 1.300096 525 755
"719" 1.301533 525 755
"720" 1.302982 525 755
"721" 1.304434 525 755
"722" 1.306044 525 755
"723" 1.307635 525 755
"724" 1.309533 525 755
"725" 1.311045 525 755
"726" 1.312442 525 755
"727" 1.313853 525 755
"728" 1.315238 525 755
"729" 1.316647 525 755
"730" 1.318068 525 755
"731" 1.319578 525 755
"732" 1.321003 525 755
"733" 1.322411 525 755
"734" 1.323862 525 755
"735" 1.325324 525 755
"736" 1.326829 525 755
"737" 1.328875 525 755
"738" 1.330491 525 755
"739" 1.332059 525 755
"740" 1.333524 525 755
"741" 1.335054 525 755
"742" 1.33656 525 755
"743" 1.338127 525 755
"744" 1.339697 525 755
"745" 1.34114 525 755
"746" 1.342561 525 755
"747" 1.344022 525 755
"748" 1.345442 525 755
"749" 1.347185 525 755
"750" 1.348907 525 755
"751" 1.350303 525 755
"752" 1.351759 525 755
"753" 1.353249 525 755
"754" 1.354667 525 755
"755" 1.356059 525 755
"756" 1.357437 525 755
"757" 1.358836 525 755
"758" 1.36023 525 755
"759" 1.361657 525 755
"760" 1.363164 525 755
"761" 1.364656 525 755
"762" 1.366061 525 755
"763" 1.367462 525 755
"764" 1.369236 525 755
"765" 1.370774 525 755
"766" 1.372217 525 755
"767" 1.373617 525 755
"768" 1.374997 525 755
"769" 1.376381 525 755
"770" 1.37786 525 755
"771" 1.379462 525 755
"772" 1.381075 525 755
"773" 1.393298 525 755
"774" 1.395298 525 755
"775" 1.396904 525 755
"776" 1.398383 525 755
"777" 1.399781 525 755
"778" 1.401252 525 755
"779" 1.402776 525 755
"780" 1.404358 525 755
"781" 1.405857 525 755
"782" 1.407246 525 755
"783" 1.408855 525 755
"784" 1.410259 525 755
"785" 1.411684 525 755
"786" 1.413162 525 755
"787" 1.414796 525 755
"788" 1.416238 525 755
"789" 1.417778 525 755
"790" 1.419451 525 755
"791" 1.42099 525 755
"792" 1.422517 525 755
"793" 1.423999 525 755
"794" 1.425456 525 755
"795" 1.426949 525 755
"796" 1.428653 525 755
"797" 1.43018 525 755
"798" 1.431658 525 755
"799" 1.433171 525 755
"800" 1.434888 525 755
"801" 1.436564 525 755
"802" 1.43811 525 755
"803" 1.439604 525 755
"804" 1.441008 525 755
"805" 1.442569 524 780
"806" 1.444381 524 188
"807" 1.44605 524 188
"808" 1.447757 524 188
"809" 1.449595 524 188
"810" 1.451053 524 188
"811" 1.45255 524 188
"812" 1.453999 524 188
"813" 1.455393 524 188
"814" 1.456787 524 188
"815" 1.458276 524 188
"816" 1.459767 524 188
"817" 1.461364 524 188
"818" 1.46309 524 188
"819" 1.464719 524 188
"820" 1.466316 524 188
"821" 1.467842 524 188
"822" 1.469664 524 188
"823" 1.471129 524 188
"824" 1.472565 524 188
"825" 1.474016 524 188
"826" 1.475615 524 188
"827" 1.477354 524 188
"828" 1.478935 524 188
"829" 1.480372 524 188
"830" 1.48175 524 188
"831" 1.483134 524 188
"832" 1.484513 524 188
"833" 1.485997 524 188
"834" 1.487481 524 188
"835" 1.489157 524 188
"836" 1.490711 524 188
"837" 1.492212 524 188
"838" 1.493644 524 188
"839" 1.495058 524 188
"840" 1.496478 524 188
"841" 1.497957 524 188
"842" 1.499384 524 188
"843" 1.500816 524 188
"844" 1.502818 524 188
"845" 1.504414 524 188
"846" 1.505838 524 188
"847" 1.5073 524 188
"848" 1.508919 524 188
"849" 1.510354 524 188
"850" 1.511768 524 188
"851" 1.513171 524 188
"852" 1.514686 524 188
"853" 1.516161 524 188
"854" 1.517648 524 188
"855" 1.519182 524 188
"856" 1.520674 524 188
"857" 1.522201 524 188
"858" 1.523678 524 188
"859" 1.52508 524 188
"860" 1.526463 524 188
"861" 1.52812 524 188
"862" 1.529633 524 188
"863" 1.531165 524 188
"864" 1.54289 524 188
"865" 1.544463 524 188
"866" 1.545867 524 188
"867" 1.547389 524 188
"868" 1.549042 524 188
"869" 1.550503 524 188
"870" 1.55221 524 188
"871" 1.553785 524 188
"872" 1.555349 524 188
"873" 1.557055 524 188
"874" 1.55859 524 188
"875" 1.560213 524 188
"876" 1.561802 524 188
"877" 1.563312 524 188
"878" 1.564821 524 188
"879" 1.56631 524 188
"880" 1.567696 524 188
"881" 1.569406 524 188
"882" 1.570889 524 188
"883" 1.572547 524 188
"884" 1.573994 524 188
"885" 1.57542 524 188
"886" 1.576879 524 188
"887" 1.578288 524 188
"888" 1.579746 524 188
"889" 1.581276 524 188
"890" 1.58271 524 188
"891" 1.584124 524 188
"892" 1.585644 524 188
"893" 1.587131 524 188
"894" 1.588828 524 188
"895" 1.590288 524 188
"896" 1.591668 524 188
"897" 1.59316 524 188
"898" 1.594766 524 188
"899" 1.596251 524 188
"900" 1.597742 524 188
"901" 1.599136 524 188
"902" 1.600523 524 188
"903" 1.60195 524 188
"904" 1.603625 523 812
"905" 1.605249 523 812
"906" 1.606716 523 812
"907" 1.608456 523 812
"908" 1.60993 523 812
"909" 1.61136 523 812
"910" 1.61281 523 812
"911" 1.614321 523 812
"912" 1.615717 523 812
"913" 1.617151 523 812
"914" 1.618642 523 812
"915" 1.620081 523 812
"916" 1.621482 523 812
"917" 1.622852 523 812
"918" 1.624243 523 812
"919" 1.625818 523 812
"920" 1.627393 523 812
"921" 1.629105 523 812
"922" 1.630648 523 812
"923" 1.632177 523 812
"924" 1.633657 523 812
"925" 1.635067 523 812
"926" 1.636569 523 812
"927" 1.638059 523 812
"928" 1.639454 523 812
"929" 1.640826 523 812
"930" 1.642189 523 812
"931" 1.643561 523 812
"932" 1.645188 523 812
"933" 1.646645 523 812
"934" 1.648264 523 812
"935" 1.649801 523 812
"936" 1.651241 523 812
"937" 1.652744 523 812
"938" 1.654265 523 812
"939" 1.655736 523 812
"940" 1.657133 523 812
"941" 1.658529 523 812
"942" 1.659937 523 812
"943" 1.661373 523 812
"944" 1.662816 523 812
"945" 1.664257 523 812
"946" 1.665694 523 812
"947" 1.667076 523 812
"948" 1.668754 523 812
"949" 1.670292 523 812
"950" 1.671699 523 812
"951" 1.673097 523 812
"952" 1.67452 523 812
"953" 1.675938 523 812
"954" 1.677353 523 812
"955" 1.678856 523 812
"956" 1.680416 523 812
"957" 1.681971 523 812
"958" 1.694736 523 812
"959" 1.696593 523 812
"960" 1.698068 523 812
"961" 1.699459 523 812
"962" 1.700846 523 812
"963" 1.702361 523 812
"964" 1.703916 523 812
"965" 1.705401 523 812
"966" 1.706783 523 812
"967" 1.708433 523 812
"968" 1.70992 523 812
"969" 1.711362 523 812
"970" 1.712902 523 812
"971" 1.714371 523 812
"972" 1.715834 523 812
"973" 1.717225 523 812
"974" 1.718702 523 812
"975" 1.720251 523 812
"976" 1.721646 523 812
"977" 1.723032 523 812
"978" 1.724514 523 812
"979" 1.725958 523 812
"980" 1.727402 523 812
"981" 1.729098 523 812
"982" 1.730619 523 812
"983" 1.732082 523 812
"984" 1.733485 523 812
"985" 1.734924 523 812
"986" 1.736516 523 812
"987" 1.737994 523 812
"988" 1.739369 523 812
"989" 1.74074 523 812
"990" 1.742138 523 812
"991" 1.743631 523 812
"992" 1.745053 523 812
"993" 1.746464 523 812
"994" 1.748153 523 812
"995" 1.7497 523 797
"996" 1.751399 522 227
"997" 1.753044 522 227
"998" 1.754597 522 227
"999" 1.756036 522 227
"1000" 1.75746 522 227
"1001" 1.758862 522 227
"1002" 1.76032 522 227
"1003" 1.761774 522 227
"1004" 1.763155 522 227
"1005" 1.764548 522 227
"1006" 1.766056 522 227
"1007" 1.767467 522 227
"1008" 1.76913 522 227
"1009" 1.77081 522 227
"1010" 1.772256 522 227
"1011" 1.773771 522 227
"1012" 1.775334 522 227
"1013" 1.776745 522 227
"1014" 1.778209 522 227
"1015" 1.779677 522 227
"1016" 1.781059 522 227
"1017" 1.782452 522 227
"1018" 1.783843 522 227
"1019" 1.785419 522 227
"1020" 1.786966 522 227
"1021" 1.788653 522 227
"1022" 1.790134 522 227
"1023" 1.791713 522 227
"1024" 1.793355 522 227
"1025" 1.794963 522 227
"1026" 1.796406 522 227
"1027" 1.797864 522 227
"1028" 1.79934 522 227
"1029" 1.800723 522 227
"1030" 1.802219 522 227
"1031" 1.803704 522 227
"1032" 1.805128 522 227
"1033" 1.806571 522 227
"1034" 1.80837 522 227
"1035" 1.80981 522 227
"1036" 1.81118 522 227
"1037" 1.812625 522 227
"1038" 1.814093 522 227
"1039" 1.81551 522 227
"1040" 1.816984 522 227
"1041" 1.818454 522 227
"1042" 1.819947 522 227
"1043" 1.821343 522 227
"1044" 1.822741 522 227
"1045" 1.82417 522 227
"1046" 1.825589 522 227
"1047" 1.827 522 227
"1048" 1.828603 522 227
"1049" 1.830059 522 227
"1050" 1.831557 522 227
"1051" 1.83302 522 227
"1052" 1.844905 522 227
"1053" 1.846448 522 227
"1054" 1.848082 522 227
"1055" 1.849486 522 227
"1056" 1.850892 522 227
"1057" 1.852312 522 227
"1058" 1.853805 522 227
"1059" 1.855275 522 227
"1060" 1.856704 522 227
"1061" 1.858086 522 227
"1062" 1.859463 522 227
"1063" 1.860847 522 227
"1064" 1.862249 522 227
"1065" 1.863627 522 227
"1066" 1.865002 522 227
"1067" 1.866396 522 227
"1068" 1.868075 522 227
"1069" 1.869642 522 227
"1070" 1.871192 522 227
"1071" 1.872667 522 227
"1072" 1.874049 522 227
"1073" 1.875441 522 227
"1074" 1.876925 522 227
"1075" 1.878343 522 227
"1076" 1.879733 522 227
"1077" 1.881153 522 227
"1078" 1.882566 522 227
"1079" 1.883938 522 227
"1080" 1.885341 522 227
"1081" 1.886801 522 227
"1082" 1.88852 522 227
"1083" 1.889981 522 227
"1084" 1.891369 522 227
"1085" 1.892814 522 227
"1086" 1.894219 522 227
"1087" 1.895737 522 227
"1088" 1.897134 522 227
"1089" 1.898538 522 227
"1090" 1.899951 522 227
"1091" 1.901346 522 227
"1092" 1.902987 522 227
"1093" 1.904569 522 227
"1094" 1.90599 522 227
"1095" 1.907415 522 227
"1096" 1.909497 522 227
"1097" 1.91114 522 227
"1098" 1.912625 522 227
"1099" 1.914018 522 227
"1100" 1.915405 522 227
"1101" 1.916798 522 806
"1102" 1.918363 522 814
"1103" 1.91995 522 814
"1104" 1.921355 522 814
"1105" 1.922746 522 814
"1106" 1.924432 522 814
"1107" 1.925926 522 814
"1108" 1.92733 522 814
"1109" 1.929013 522 814
"1110" 1.930678 522 814
"1111" 1.932152 522 814
"1112" 1.933698 522 814
"1113" 1.935587 522 814
"1114" 1.937201 522 814
"1115" 1.938666 522 814
"1116" 1.94013 522 814
"1117" 1.941657 522 814
"1118" 1.943162 522 814
"1119" 1.944573 522 814
"1120" 1.945979 522 814
"1121" 1.947484 522 814
"1122" 1.949237 522 814
"1123" 1.950741 522 814
"1124" 1.952305 522 814
"1125" 1.953791 522 814
"1126" 1.955237 522 814
"1127" 1.956647 522 814
"1128" 1.958148 522 814
"1129" 1.959617 522 814
"1130" 1.961021 522 814
"1131" 1.962505 522 814
"1132" 1.963902 522 814
"1133" 1.965373 522 814
"1134" 1.966926 522 814
"1135" 1.968651 522 814
"1136" 1.97023 522 814
"1137" 1.971644 522 814
"1138" 1.973134 522 814
"1139" 1.97454 522 814
"1140" 1.975942 522 814
"1141" 1.977406 522 814
"1142" 1.978788 522 814
"1143" 1.980184 522 814
"1144" 1.981666 522 814
"1145" 1.983154 522 814
"1146" 1.994954 522 814
"1147" 1.996673 522 814
"1148" 1.998145 522 814
"1149" 1.9998 522 814
"1150" 2.001267 522 814
"1151" 2.002854 522 814
"1152" 2.004338 522 814
"1153" 2.005773 522 814
"1154" 2.007256 522 814
"1155" 2.008895 522 814
"1156" 2.010438 522 814
"1157" 2.011849 522 814
"1158" 2.013385 522 814
"1159" 2.014987 522 814
"1160" 2.016464 522 814
"1161" 2.017891 522 814
"1162" 2.019482 522 814
"1163" 2.021018 522 814
"1164" 2.022427 522 814
"1165" 2.02383 522 814
"1166" 2.025224 522 814
"1167" 2.026724 522 814
"1168" 2.028563 522 814
"1169" 2.030097 522 814
"1170" 2.031522 522 814
"1171" 2.032926 522 814
"1172" 2.034365 522 814
"1173" 2.035817 522 814
"1174" 2.037504 522 814
"1175" 2.03911 522 814
"1176" 2.040649 522 814
"1177" 2.042148 522 814
"1178" 2.043761 522 814
"1179" 2.045441 522 814
"1180" 2.046948 522 814
"1181" 2.04865 522 814
"1182" 2.050111 522 814
"1183" 2.051541 522 814
"1184" 2.053133 522 814
"1185" 2.054646 522 814
"1186" 2.056042 522 814
"1187" 2.057455 522 814
"1188" 2.058992 522 814
"1189" 2.060496 522 814
"1190" 2.06191 522 814
"1191" 2.063334 522 814
"1192" 2.064802 522 814
"1193" 2.066189 522 814
"1194" 2.067625 522 814
"1195" 2.069768 520 155
"1196" 2.0714 520 155
"1197" 2.072825 520 155
"1198" 2.0743 520 155
"1199" 2.075719 520 155
"1200" 2.077156 520 155
"1201" 2.078778 520 155
"1202" 2.080514 520 155
"1203" 2.082344 520 155
"1204" 2.084104 520 155
"1205" 2.086156 520 155
"1206" 2.088067 520 155
"1207" 2.090297 520 155
"1208" 2.092143 520 155
"1209" 2.093924 520 155
"1210" 2.095691 520 155
"1211" 2.097281 520 155
"1212" 2.098901 520 155
"1213" 2.100377 520 155
"1214" 2.101838 520 155
"1215" 2.103416 520 155
"1216" 2.104878 520 155
"1217" 2.106333 520 155
"1218" 2.107709 520 155
"1219" 2.109408 520 155
"1220" 2.110891 520 155
"1221" 2.112289 520 155
"1222" 2.113724 520 155
"1223" 2.115115 520 155
"1224" 2.116572 520 155
"1225" 2.11804 520 155
"1226" 2.119537 520 155
"1227" 2.121056 520 155
"1228" 2.122443 520 155
"1229" 2.124107 520 155
"1230" 2.125585 520 155
"1231" 2.126988 520 155
"1232" 2.128566 520 155
"1233" 2.130073 520 155
"1234" 2.131561 520 155
"1235" 2.133028 520 155
"1236" 2.134526 520 155
"1237" 2.146314 520 155
"1238" 2.147853 520 155
"1239" 2.149511 520 155
"1240" 2.150912 520 155
"1241" 2.152331 520 155
"1242" 2.153792 520 155
"1243" 2.155212 520 155
"1244" 2.156763 520 155
"1245" 2.158261 520 155
"1246" 2.159659 520 155
"1247" 2.161034 520 155
"1248" 2.162486 520 155
"1249" 2.164153 520 155
"1250" 2.16583 520 155
"1251" 2.167414 520 155
"1252" 2.169191 520 155
"1253" 2.170674 520 155
"1254" 2.172113 520 155
"1255" 2.173655 520 155
"1256" 2.175359 520 155
"1257" 2.176993 520 155
"1258" 2.178444 520 155
"1259" 2.179829 520 155
"1260" 2.181211 520 155
"1261" 2.182701 520 155
"1262" 2.184203 520 155
"1263" 2.185897 520 155
"1264" 2.187443 520 155
"1265" 2.189328 520 155
"1266" 2.190867 520 155
"1267" 2.192286 520 155
"1268" 2.193679 520 155
"1269" 2.19507 520 155
"1270" 2.196544 520 155
"1271" 2.197933 520 155
"1272" 2.199368 520 155
"1273" 2.200752 520 155
"1274" 2.202146 520 155
"1275" 2.203702 520 155
"1276" 2.205448 520 804
"1277" 2.207088 520 804
"1278" 2.20879 520 804
"1279" 2.210354 520 804
"1280" 2.211848 520 804
"1281" 2.213229 520 804
"1282" 2.214613 520 804
"1283" 2.215997 520 804
"1284" 2.217364 520 804
"1285" 2.218801 520 804
"1286" 2.220464 520 804
"1287" 2.222301 520 804
"1288" 2.223967 520 804
"1289" 2.225712 520 804
"1290" 2.227525 520 804
"1291" 2.229405 520 804
"1292" 2.231054 520 804
"1293" 2.232489 520 804
"1294" 2.233873 520 804
"1295" 2.235333 520 804
"1296" 2.236907 520 804
"1297" 2.238328 520 804
"1298" 2.239748 520 804
"1299" 2.241166 520 804
"1300" 2.242579 520 804
"1301" 2.244097 520 804
"1302" 2.24552 520 804
"1303" 2.246916 520 804
"1304" 2.248551 520 804
"1305" 2.249946 520 804
"1306" 2.251369 520 804
"1307" 2.252979 520 804
"1308" 2.254596 520 804
"1309" 2.256108 520 804
"1310" 2.257615 520 804
"1311" 2.259062 520 804
"1312" 2.26052 520 804
"1313" 2.261947 520 804
"1314" 2.263581 520 804
"1315" 2.265126 520 804
"1316" 2.266592 520 804
"1317" 2.268268 520 804
"1318" 2.269991 520 804
"1319" 2.271505 520 804
"1320" 2.272998 520 804
"1321" 2.27444 520 804
"1322" 2.275863 520 804
"1323" 2.277354 520 804
"1324" 2.278763 520 804
"1325" 2.280231 520 804
"1326" 2.28167 520 804
"1327" 2.283093 520 804
"1328" 2.284666 520 804
"1329" 2.296467 520 804
"1330" 2.298153 520 804
"1331" 2.2996 520 804
"1332" 2.301047 520 804
"1333" 2.302531 520 804
"1334" 2.304045 520 804
"1335" 2.305552 520 804
"1336" 2.307136 520 804
"1337" 2.308917 520 804
"1338" 2.310338 520 804
"1339" 2.311732 520 804
"1340" 2.313191 520 804
"1341" 2.314674 520 804
"1342" 2.31623 520 804
"1343" 2.317709 520 804
"1344" 2.319141 520 804
"1345" 2.320657 520 804
"1346" 2.322095 520 804
"1347" 2.323508 520 804
"1348" 2.324898 520 804
"1349" 2.326288 520 804
"1350" 2.3277 520 804
"1351" 2.329388 520 804
"1352" 2.33083 520 804
"1353" 2.332241 520 804
"1354" 2.333672 520 804
"1355" 2.335116 520 804
"1356" 2.336681 520 804
"1357" 2.338125 520 804
"1358" 2.33952 520 804
"1359" 2.340903 520 804
"1360" 2.342285 520 804
"1361" 2.3438 520 804
"1362" 2.345337 520 804
"1363" 2.346802 520 804
"1364" 2.348556 520 804
"1365" 2.35005 520 804
"1366" 2.351498 520 804
"1367" 2.352997 520 804
"1368" 2.354438 520 804
"1369" 2.355904 520 804
"1370" 2.357329 520 804
"1371" 2.358786 520 804
"1372" 2.360265 520 804
"1373" 2.361657 520 804
"1374" 2.363399 519 194
"1375" 2.365085 519 194
"1376" 2.366595 519 194
"1377" 2.368246 519 194
"1378" 2.3699 519 194
"1379" 2.371489 519 194
"1380" 2.373035 519 194
"1381" 2.374558 519 194
"1382" 2.376009 519 194
"1383" 2.377418 519 194
"1384" 2.37882 519 194
"1385" 2.380366 519 194
"1386" 2.38191 519 194
"1387" 2.383315 519 194
"1388" 2.384715 519 194
"1389" 2.386151 519 194
"1390" 2.387598 519 194
"1391" 2.389277 519 194
"1392" 2.39076 519 194
"1393" 2.392143 519 194
"1394" 2.393508 519 194
"1395" 2.395104 519 194
"1396" 2.396579 519 194
"1397" 2.398051 519 194
"1398" 2.399434 519 194
"1399" 2.400934 519 194
"1400" 2.402714 519 194
"1401" 2.404414 519 194
"1402" 2.405901 519 194
"1403" 2.407314 519 194
"1404" 2.40885 519 194
"1405" 2.410343 519 194
"1406" 2.411877 519 194
"1407" 2.413294 519 194
"1408" 2.414683 519 194
"1409" 2.416074 519 194
"1410" 2.417447 519 194
"1411" 2.418983 519 194
"1412" 2.420475 519 194
"1413" 2.421932 519 194
"1414" 2.423316 519 194
"1415" 2.42479 519 194
"1416" 2.426199 519 194
"1417" 2.427598 519 194
"1418" 2.42922 519 194
"1419" 2.430633 519 194
"1420" 2.432037 519 194
"1421" 2.433484 519 194
"1422" 2.434997 519 194
"1423" 2.446891 519 194
"1424" 2.448774 519 194
"1425" 2.45029 519 194
"1426" 2.451698 519 194
"1427" 2.453134 519 194
"1428" 2.454565 519 194
"1429" 2.456016 519 194
"1430" 2.457433 519 194
"1431" 2.458824 519 194
"1432" 2.460218 519 194
"1433" 2.461598 519 194
"1434" 2.462994 519 194
"1435" 2.464372 519 194
"1436" 2.465828 519 194
"1437" 2.467232 519 194
"1438" 2.469018 519 194
"1439" 2.470655 519 194
"1440" 2.472133 519 194
"1441" 2.473515 519 194
"1442" 2.47495 519 194
"1443" 2.476408 519 194
"1444" 2.477788 519 194
"1445" 2.479174 519 194
"1446" 2.480544 519 194
"1447" 2.48191 519 194
"1448" 2.483271 519 194
"1449" 2.484642 519 194
"1450" 2.486048 519 194
"1451" 2.487474 519 194
"1452" 2.489309 519 194
"1453" 2.490835 519 194
"1454" 2.492298 519 194
"1455" 2.493843 519 194
"1456" 2.495301 519 194
"1457" 2.496853 519 194
"1458" 2.498348 519 194
"1459" 2.499827 519 194
"1460" 2.501295 519 194
"1461" 2.503165 519 194
"1462" 2.504687 519 194
"1463" 2.506238 519 194
"1464" 2.507673 519 194
"1465" 2.50932 519 194
"1466" 2.510833 519 194
"1467" 2.512371 519 194
"1468" 2.513849 519 194
"1469" 2.515253 519 194
"1470" 2.516662 519 194
"1471" 2.518052 519 194
"1472" 2.519468 519 194
"1473" 2.521021 519 194
"1474" 2.52247 519 194
"1475" 2.523854 519 194
"1476" 2.525385 519 194
"1477" 2.526827 519 194
"1478" 2.528456 519 194
"1479" 2.52993 519 194
"1480" 2.531467 519 194
"1481" 2.533167 519 194
"1482" 2.534799 519 194
"1483" 2.53644 519 194
"1484" 2.538142 519 194
"1485" 2.539843 519 194
"1486" 2.541531 519 194
"1487" 2.543224 519 790
"1488" 2.544924 519 790
"1489" 2.546381 519 790
"1490" 2.547828 519 790
"1491" 2.549459 519 790
"1492" 2.550865 519 790
"1493" 2.55233 519 790
"1494" 2.554004 519 790
"1495" 2.55547 519 790
"1496" 2.556871 519 790
"1497" 2.558266 519 790
"1498" 2.559666 519 790
"1499" 2.561043 519 790
"1500" 2.562432 519 790
"1501" 2.563809 519 790
"1502" 2.565225 519 790
"1503" 2.566621 519 790
"1504" 2.568418 519 790
"1505" 2.570015 519 790
"1506" 2.571539 519 790
"1507" 2.573001 519 790
"1508" 2.574485 519 790
"1509" 2.575952 519 790
"1510" 2.577342 519 790
"1511" 2.57872 519 790
"1512" 2.580108 519 790
"1513" 2.581559 519 790
"1514" 2.583059 519 790
"1515" 2.584539 519 790
"1516" 2.586075 519 790
"1517" 2.598219 519 790
"1518" 2.600197 519 790
"1519" 2.601947 519 790
"1520" 2.603747 519 790
"1521" 2.605555 519 790
"1522" 2.607329 519 790
"1523" 2.609329 519 790
"1524" 2.611023 519 790
"1525" 2.612707 519 790
"1526" 2.614421 519 790
"1527" 2.616212 519 790
"1528" 2.61782 519 790
"1529" 2.619463 519 790
"1530" 2.62132 519 790
"1531" 2.622905 519 790
"1532" 2.624411 519 790
"1533" 2.62597 519 790
"1534" 2.627508 519 790
"1535" 2.629938 519 790
"1536" 2.631801 519 790
"1537" 2.633413 519 790
"1538" 2.634955 519 790
"1539" 2.636596 519 790
"1540" 2.638196 519 790
"1541" 2.639697 519 790
"1542" 2.641179 519 790
"1543" 2.642764 519 790
"1544" 2.644316 519 790
"1545" 2.645904 519 790
"1546" 2.647364 519 790
"1547" 2.64905 519 790
"1548" 2.650543 519 790
"1549" 2.652018 519 790
"1550" 2.653514 519 790
"1551" 2.654969 519 790
"1552" 2.656364 519 790
"1553" 2.657877 519 790
"1554" 2.659316 519 790
"1555" 2.6607 519 790
"1556" 2.662154 519 790
"1557" 2.66356 519 790
"1558" 2.664958 519 790
"1559" 2.666347 519 790
"1560" 2.667738 519 790
"1561" 2.669414 519 790
"1562" 2.670869 519 790
"1563" 2.672416 519 790
"1564" 2.67393 519 790
"1565" 2.675356 519 790
"1566" 2.676758 519 790
"1567" 2.678181 519 790
"1568" 2.679627 519 790
"1569" 2.680998 519 790
"1570" 2.682376 519 790
"1571" 2.683756 519 790
"1572" 2.685222 518 189
"1573" 2.686973 518 189
"1574" 2.688764 518 189
"1575" 2.690401 518 189
"1576" 2.691872 518 189
"1577" 2.693375 518 189
"1578" 2.694957 518 189
"1579" 2.696422 518 189
"1580" 2.697978 518 189
"1581" 2.699468 518 189
"1582" 2.700921 518 189
"1583" 2.70241 518 189
"1584" 2.703926 518 189
"1585" 2.705384 518 189
"1586" 2.706784 518 189
"1587" 2.708414 518 189
"1588" 2.709863 518 189
"1589" 2.711263 518 189
"1590" 2.712652 518 189
"1591" 2.714035 518 189
"1592" 2.715435 518 189
"1593" 2.716818 518 189
"1594" 2.718349 518 189
"1595" 2.71995 518 189
"1596" 2.721443 518 189
"1597" 2.72298 518 189
"1598" 2.724439 518 189
"1599" 2.725859 518 189
"1600" 2.727261 518 189
"1601" 2.728938 518 189
"1602" 2.730361 518 189
"1603" 2.731756 518 189
"1604" 2.733156 518 189
"1605" 2.73454 518 189
"1606" 2.736016 518 189
"1607" 2.737565 518 189
"1608" 2.749357 518 189
"1609" 2.751282 518 189
"1610" 2.752825 518 189
"1611" 2.754373 518 189
"1612" 2.755874 518 189
"1613" 2.7573 518 189
"1614" 2.758744 518 189
"1615" 2.760215 518 189
"1616" 2.761588 518 189
"1617" 2.762962 518 189
"1618" 2.764325 518 189
"1619" 2.765736 518 189
"1620" 2.767238 518 189
"1621" 2.768888 518 189
"1622" 2.770625 518 189
"1623" 2.772077 518 189
"1624" 2.773496 518 189
"1625" 2.774891 518 189
"1626" 2.776309 518 189
"1627" 2.777741 518 189
"1628" 2.779142 518 189
"1629" 2.780539 518 189
"1630" 2.781981 518 189
"1631" 2.783406 518 189
"1632" 2.78484 518 189
"1633" 2.786339 518 189
"1634" 2.787956 518 189
"1635" 2.789611 518 189
"1636" 2.791037 518 189
"1637" 2.792447 518 189
"1638" 2.793828 518 189
"1639" 2.79522 518 189
"1640" 2.796636 518 189
"1641" 2.798035 518 189
"1642" 2.79952 518 189
"1643" 2.800977 518 189
"1644" 2.802415 518 189
"1645" 2.803961 518 189
"1646" 2.805415 518 189
"1647" 2.806927 518 189
"1648" 2.808611 518 189
"1649" 2.810076 518 189
"1650" 2.811707 518 774
"1651" 2.813359 518 774
"1652" 2.814895 518 774
"1653" 2.816367 518 774
"1654" 2.817773 518 774
"1655" 2.819194 518 774
"1656" 2.820688 518 774
"1657" 2.822095 518 774
"1658" 2.823509 518 774
"1659" 2.824975 518 774
"1660" 2.826458 518 774
"1661" 2.828098 518 774
"1662" 2.829566 518 774
"1663" 2.830981 518 774
"1664" 2.832376 518 774
"1665" 2.833787 518 774
"1666" 2.835213 518 774
"1667" 2.836654 518 774
"1668" 2.838162 518 774
"1669" 2.839643 518 774
"1670" 2.841079 518 774
"1671" 2.842511 518 774
"1672" 2.843982 518 774
"1673" 2.845425 518 774
"1674" 2.846856 518 774
"1675" 2.848476 518 774
"1676" 2.849932 518 774
"1677" 2.851376 518 774
"1678" 2.852872 518 774
"1679" 2.854381 518 774
"1680" 2.85581 518 774
"1681" 2.857203 518 774
"1682" 2.858594 518 774
"1683" 2.85998 518 774
"1684" 2.861377 518 774
"1685" 2.862798 518 774
"1686" 2.864209 518 774
"1687" 2.865634 518 774
"1688" 2.867049 518 774
"1689" 2.8687 518 774
"1690" 2.870341 518 774
"1691" 2.871851 518 774
"1692" 2.873257 518 774
"1693" 2.874681 518 774
"1694" 2.876125 518 774
"1695" 2.877612 518 774
"1696" 2.879076 518 774
"1697" 2.880518 518 774
"1698" 2.881894 518 774
"1699" 2.883283 518 774
"1700" 2.884669 518 774
"1701" 2.88612 518 774
"1702" 2.887683 518 774
"1703" 2.899652 518 774
"1704" 2.901197 518 774
"1705" 2.902678 518 774
"1706" 2.904263 518 774
"1707" 2.90573 518 774
"1708" 2.907246 518 774
"1709" 2.908891 518 774
"1710" 2.910301 518 774
"1711" 2.91168 518 774
"1712" 2.913166 518 774
"1713" 2.914795 518 774
"1714" 2.91626 518 774
"1715" 2.91766 518 774
"1716" 2.919172 518 774
"1717" 2.920757 518 774
"1718" 2.922226 518 774
"1719" 2.923623 518 774
"1720" 2.924998 518 774
"1721" 2.926364 518 774
"1722" 2.927747 518 774
"1723" 2.929384 518 774
"1724" 2.93094 518 774
"1725" 2.932586 518 774
"1726" 2.934097 518 774
"1727" 2.935522 518 774
"1728" 2.937168 518 774
"1729" 2.938687 518 774
"1730" 2.940186 518 774
"1731" 2.941656 518 774
"1732" 2.943201 518 774
"1733" 2.944712 518 774
"1734" 2.946125 518 774
"1735" 2.947662 518 774
"1736" 2.949302 518 774
"1737" 2.950738 518 774
"1738" 2.95225 518 774
"1739" 2.953815 518 774
"1740" 2.955519 517 179
"1741" 2.957116 517 179
"1742" 2.95854 517 179
"1743" 2.959941 517 179
"1744" 2.961457 517 179
"1745" 2.962933 517 179
"1746" 2.964456 517 179
"1747" 2.965972 517 179
"1748" 2.967498 517 179
"1749" 2.969052 517 179
"1750" 2.970558 517 179
"1751" 2.971995 517 179
"1752" 2.973486 517 179
"1753" 2.975019 517 179
"1754" 2.976497 517 179
"1755" 2.977988 517 179
"1756" 2.979533 517 179
"1757" 2.980969 517 179
"1758" 2.982373 517 179
"1759" 2.983786 517 179
"1760" 2.985178 517 179
"1761" 2.986603 517 179
"1762" 2.988365 517 179
"1763" 2.989789 517 179
"1764" 2.991295 517 179
"1765" 2.992892 517 179
"1766" 2.994584 517 179
"1767" 2.996115 517 179
"1768" 2.99754 517 179
"1769" 2.998924 517 179
"1770" 3.000319 517 179
"1771" 3.001812 517 179
"1772" 3.003454 517 179
"1773" 3.005021 517 179
"1774" 3.006421 517 179
"1775" 3.008032 517 179
"1776" 3.009454 517 179
"1777" 3.01097 517 179
"1778" 3.012387 517 179
"1779" 3.01377 517 179
"1780" 3.015175 517 179
"1781" 3.016566 517 179
"1782" 3.017962 517 179
"1783" 3.019477 517 179
"1784" 3.020953 517 179
"1785" 3.022364 517 179
"1786" 3.023839 517 179
"1787" 3.02534 517 179
"1788" 3.02678 517 179
"1789" 3.028473 517 179
"1790" 3.029945 517 179
"1791" 3.031406 517 179
"1792" 3.032795 517 179
"1793" 3.034197 517 179
"1794" 3.035588 517 179
"1795" 3.037061 517 179
"1796" 3.038592 517 179
"1797" 3.05023 517 179
"1798" 3.051912 517 179
"1799" 3.053408 517 179
"1800" 3.054877 517 179
"1801" 3.056292 517 179
"1802" 3.057792 517 179
"1803" 3.059263 517 179
"1804" 3.060694 517 179
"1805" 3.062074 517 179
"1806" 3.063475 517 179
"1807" 3.064902 517 179
"1808" 3.066306 517 179
"1809" 3.067693 517 179
"1810" 3.069437 517 179
"1811" 3.071033 517 179
"1812" 3.072458 517 179
"1813" 3.073909 517 179
"1814" 3.075329 517 179
"1815" 3.076705 517 179
"1816" 3.07812 517 179
"1817" 3.079567 517 179
"1818" 3.080965 517 179
"1819" 3.082403 517 179
"1820" 3.083793 517 179
"1821" 3.085471 517 179
"1822" 3.086994 517 179
"1823" 3.08877 517 179
"1824" 3.090291 517 179
"1825" 3.091761 517 179
"1826" 3.093459 517 800
"1827" 3.094975 517 800
"1828" 3.096595 517 800
"1829" 3.098159 517 800
"1830" 3.099655 517 800
"1831" 3.101104 517 800
"1832" 3.102648 517 800
"1833" 3.104395 517 800
"1834" 3.106066 517 800
"1835" 3.107541 517 800
"1836" 3.109269 517 800
"1837" 3.110804 517 800
"1838" 3.112247 517 800
"1839" 3.113657 517 800
"1840" 3.115127 517 800
"1841" 3.116536 517 800
"1842" 3.11795 517 800
"1843" 3.119375 517 800
"1844" 3.120884 517 800
"1845" 3.122351 517 800
"1846" 3.123746 517 800
"1847" 3.125242 517 800
"1848" 3.126774 517 800
"1849" 3.128422 517 800
"1850" 3.12992 517 800
"1851" 3.131471 517 800
"1852" 3.13292 517 800
"1853" 3.134317 517 800
"1854" 3.135751 517 800
"1855" 3.137344 517 800
"1856" 3.13883 517 800
"1857" 3.140237 517 800
"1858" 3.141638 517 800
"1859" 3.143024 517 800
"1860" 3.144539 517 800
"1861" 3.146131 517 800
"1862" 3.147594 517 800
"1863" 3.149204 517 800
"1864" 3.150635 517 800
"1865" 3.15212 517 800
"1866" 3.153961 517 800
"1867" 3.155623 517 800
"1868" 3.157397 517 800
"1869" 3.159089 517 800
"1870" 3.160719 517 800
"1871" 3.162585 517 800
"1872" 3.164202 517 800
"1873" 3.165647 517 800
"1874" 3.167094 517 800
"1875" 3.169056 517 800
"1876" 3.170741 517 800
"1877" 3.172269 517 800
"1878" 3.173646 517 800
"1879" 3.175021 517 800
"1880" 3.176388 517 800
"1881" 3.177758 517 800
"1882" 3.179142 517 800
"1883" 3.180515 517 800
"1884" 3.181904 517 800
"1885" 3.18333 517 800
"1886" 3.184847 517 800
"1887" 3.186358 517 800
"1888" 3.187846 517 800
"1889" 3.189576 517 800
"1890" 3.201724 517 800
"1891" 3.203258 517 800
"1892" 3.204758 517 800
"1893" 3.206172 517 800
"1894" 3.207547 517 800
"1895" 3.209151 517 800
"1896" 3.210582 517 800
"1897" 3.21248 517 800
"1898" 3.214659 517 800
"1899" 3.216357 517 800
"1900" 3.217937 517 800
"1901" 3.21947 517 800
"1902" 3.221039 517 800
"1903" 3.222531 517 800
"1904" 3.223941 517 800
"1905" 3.225382 517 800
"1906" 3.226796 517 800
"1907" 3.228474 517 800
"1908" 3.230023 517 800
"1909" 3.231592 517 800
"1910" 3.233108 517 800
"1911" 3.234499 517 800
"1912" 3.235945 517 800
"1913" 3.237495 517 800
"1914" 3.238897 517 800
"1915" 3.240279 517 800
"1916" 3.241685 517 800
"1917" 3.24335 516 170
"1918" 3.245133 516 170
"1919" 3.246771 516 170
"1920" 3.248457 516 170
"1921" 3.249929 516 170
"1922" 3.251415 516 170
"1923" 3.252948 516 170
"1924" 3.254491 516 170
"1925" 3.255998 516 170
"1926" 3.257496 516 170
"1927" 3.258939 516 170
"1928" 3.260432 516 170
"1929" 3.261836 516 170
"1930" 3.263247 516 170
"1931" 3.264654 516 170
"1932" 3.26604 516 170
"1933" 3.267436 516 170
"1934" 3.269028 516 170
"1935" 3.270663 516 170
"1936" 3.272108 516 170
"1937" 3.273522 516 170
"1938" 3.274998 516 170
"1939" 3.27639 516 170
"1940" 3.277776 516 170
"1941" 3.279214 516 170
"1942" 3.28072 516 170
"1943" 3.282176 516 170
"1944" 3.283591 516 170
"1945" 3.284967 516 170
"1946" 3.286569 516 170
"1947" 3.288299 516 170
"1948" 3.289698 516 170
"1949" 3.291068 516 170
"1950" 3.292461 516 170
"1951" 3.293869 516 170
"1952" 3.295276 516 170
"1953" 3.296694 516 170
"1954" 3.298081 516 170
"1955" 3.299508 516 170
"1956" 3.300966 516 170
"1957" 3.302356 516 170
"1958" 3.303864 516 170
"1959" 3.305351 516 170
"1960" 3.306808 516 170
"1961" 3.308512 516 170
"1962" 3.310067 516 170
"1963" 3.311537 516 170
"1964" 3.313035 516 170
"1965" 3.314522 516 170
"1966" 3.316031 516 170
"1967" 3.317474 516 170
"1968" 3.31886 516 170
"1969" 3.32027 516 170
"1970" 3.321748 516 170
"1971" 3.323245 516 170
"1972" 3.324816 516 170
"1973" 3.326356 516 170
"1974" 3.328003 516 170
"1975" 3.329759 516 170
"1976" 3.331266 516 170
"1977" 3.332725 516 170
"1978" 3.334156 516 170
"1979" 3.335547 516 170
"1980" 3.337011 516 170
"1981" 3.338483 516 170
"1982" 3.339979 516 170
"1983" 3.352107 516 170
"1984" 3.353998 516 170
"1985" 3.355582 516 170
"1986" 3.357057 516 170
"1987" 3.358492 516 170
"1988" 3.359916 516 170
"1989" 3.361334 516 170
"1990" 3.362736 516 170
"1991" 3.364159 516 170
"1992" 3.365577 516 170
"1993" 3.367111 516 170
"1994" 3.368733 516 170
"1995" 3.370234 516 170
"1996" 3.371791 516 170
"1997" 3.373489 516 170
"1998" 3.375161 516 170
"1999" 3.376719 516 170
"2000" 3.378155 516 170
"2001" 3.3796 516 170
"2002" 3.38105 516 170
"2003" 3.382468 516 170
"2004" 3.383902 516 170
"2005" 3.385329 516 170
"2006" 3.386854 516 170
"2007" 3.388897 516 170
"2008" 3.390487 516 170
"2009" 3.391918 516 170
"2010" 3.393395 516 170
"2011" 3.395057 516 170
"2012" 3.396523 516 170
"2013" 3.397998 516 179
"2014" 3.399562 516 801
"2015" 3.400993 516 801
"2016" 3.402406 516 801
"2017" 3.403881 516 801
"2018" 3.40539 516 801
"2019" 3.406871 516 801
"2020" 3.40852 516 801
"2021" 3.410038 516 801
"2022" 3.411643 516 801
"2023" 3.413212 516 801
"2024" 3.414661 516 801
"2025" 3.41609 516 801
"2026" 3.417526 516 801
"2027" 3.418942 516 801
"2028" 3.420461 516 801
"2029" 3.421926 516 801
"2030" 3.423341 516 801
"2031" 3.424726 516 801
"2032" 3.426133 516 801
"2033" 3.427693 516 801
"2034" 3.429448 516 801
"2035" 3.430884 516 801
"2036" 3.432346 516 801
"2037" 3.43377 516 801
"2038" 3.435297 516 801
"2039" 3.436967 516 801
"2040" 3.438464 516 801
"2041" 3.439875 516 801
"2042" 3.441273 516 801
"2043" 3.442662 516 801
"2044" 3.444181 516 801
"2045" 3.445594 516 801
"2046" 3.44702 516 801
"2047" 3.448567 516 801
"2048" 3.450032 516 801
"2049" 3.451481 516 801
"2050" 3.452983 516 801
"2051" 3.454478 516 801
"2052" 3.455891 516 801
"2053" 3.457444 516 801
"2054" 3.458947 516 801
"2055" 3.460377 516 801
"2056" 3.461765 516 801
"2057" 3.463217 516 801
"2058" 3.465014 516 801
"2059" 3.466708 516 801
"2060" 3.468601 516 801
"2061" 3.470134 516 801
"2062" 3.471597 516 801
"2063" 3.472988 516 801
"2064" 3.474436 516 801
"2065" 3.475828 516 801
"2066" 3.477288 516 801
"2067" 3.478698 516 801
"2068" 3.480085 516 801
"2069" 3.48186 516 801
"2070" 3.483338 516 801
"2071" 3.484744 516 801
"2072" 3.486171 516 801
"2073" 3.487746 516 801
"2074" 3.48958 516 801
"2075" 3.491159 516 801
"2076" 3.503126 516 801
"2077" 3.505154 516 801
"2078" 3.506567 516 801
"2079" 3.508326 516 801
"2080" 3.509722 516 801
"2081" 3.511112 516 801
"2082" 3.512498 516 801
"2083" 3.513921 516 801
"2084" 3.515318 516 801
"2085" 3.516706 516 801
"2086" 3.518087 516 801
"2087" 3.519479 516 801
"2088" 3.521042 516 801
"2089" 3.52248 516 801
"2090" 3.523899 516 801
"2091" 3.525541 516 801
"2092" 3.526989 516 801
"2093" 3.528841 516 801
"2094" 3.530425 516 801
"2095" 3.531893 516 801
"2096" 3.533269 516 801
"2097" 3.534658 516 801
"2098" 3.536215 516 801
"2099" 3.53787 516 801
"2100" 3.539355 516 801
"2101" 3.540735 516 801
"2102" 3.542114 516 801
"2103" 3.543666 515 174
"2104" 3.545358 515 174
"2105" 3.546903 515 174
"2106" 3.548556 515 174
"2107" 3.550076 515 174
"2108" 3.551474 515 174
"2109" 3.553035 515 174
"2110" 3.554623 515 174
"2111" 3.556042 515 174
"2112" 3.557464 515 174
"2113" 3.558939 515 174
"2114" 3.560369 515 174
"2115" 3.561745 515 174
"2116" 3.563212 515 174
"2117" 3.56496 515 174
"2118" 3.566537 515 174
"2119" 3.568708 515 174
"2120" 3.570389 515 174
"2121" 3.571931 515 174
"2122" 3.573384 515 174
"2123" 3.574906 515 174
"2124" 3.576395 515 174
"2125" 3.577795 515 174
"2126" 3.579481 515 174
"2127" 3.581164 515 174
"2128" 3.582717 515 174
"2129" 3.584133 515 174
"2130" 3.585563 515 174
"2131" 3.587006 515 174
"2132" 3.588914 515 174
"2133" 3.59057 515 174
"2134" 3.592032 515 174
"2135" 3.593455 515 174
"2136" 3.594841 515 174
"2137" 3.596375 515 174
"2138" 3.597825 515 174
"2139" 3.599214 515 174
"2140" 3.600622 515 174
"2141" 3.602004 515 174
"2142" 3.60344 515 174
"2143" 3.604893 515 174
"2144" 3.606275 515 174
"2145" 3.607693 515 174
"2146" 3.609403 515 174
"2147" 3.610909 515 174
"2148" 3.612357 515 174
"2149" 3.613746 515 174
"2150" 3.615257 515 174
"2151" 3.616745 515 174
"2152" 3.618253 515 174
"2153" 3.619738 515 174
"2154" 3.621295 515 174
"2155" 3.622768 515 174
"2156" 3.624146 515 174
"2157" 3.625552 515 174
"2158" 3.62696 515 174
"2159" 3.628504 515 174
"2160" 3.630026 515 174
"2161" 3.631468 515 174
"2162" 3.632946 515 174
"2163" 3.63434 515 174
"2164" 3.635724 515 174
"2165" 3.637177 515 174
"2166" 3.639029 515 174
"2167" 3.640588 515 174
"2168" 3.642079 515 174
"2169" 3.654486 515 174
"2170" 3.656277 515 174
"2171" 3.657758 515 174
"2172" 3.659137 515 174
"2173" 3.660516 515 174
"2174" 3.661886 515 174
"2175" 3.663258 515 174
"2176" 3.664655 515 174
"2177" 3.666048 515 174
"2178" 3.667411 515 174
"2179" 3.669039 515 174
"2180" 3.670589 515 174
"2181" 3.672127 515 174
"2182" 3.673513 515 174
"2183" 3.674906 515 174
"2184" 3.676285 515 174
"2185" 3.677745 515 174
"2186" 3.679211 515 174
"2187" 3.680584 515 174
"2188" 3.681987 515 174
"2189" 3.683401 515 174
"2190" 3.684778 515 174
"2191" 3.686314 515 174
"2192" 3.688385 515 174
"2193" 3.690264 515 174
"2194" 3.691741 515 174
"2195" 3.693313 516 793
"2196" 3.695095 516 793
"2197" 3.696617 516 793
"2198" 3.698144 516 793
"2199" 3.699651 516 793
"2200" 3.701118 516 793
"2201" 3.702609 516 793
"2202" 3.704077 516 793
"2203" 3.705617 516 793
"2204" 3.707101 516 793
"2205" 3.708786 516 793
"2206" 3.71022 516 793
"2207" 3.711597 516 793
"2208" 3.713006 516 793
"2209" 3.714467 516 793
"2210" 3.715863 516 793
"2211" 3.717273 516 793
"2212" 3.718675 516 793
"2213" 3.720199 516 793
"2214" 3.721715 516 793
"2215" 3.723116 516 793
"2216" 3.724483 516 793
"2217" 3.72585 516 793
"2218" 3.727216 516 793
"2219" 3.728956 516 793
"2220" 3.730411 516 793
"2221" 3.731893 516 793
"2222" 3.733298 516 793
"2223" 3.734745 516 793
"2224" 3.736307 516 793
"2225" 3.737923 516 793
"2226" 3.739414 516 793
"2227" 3.740824 516 793
"2228" 3.74226 516 793
"2229" 3.743736 516 793
"2230" 3.745222 516 793
"2231" 3.746805 516 793
"2232" 3.748596 516 793
"2233" 3.750173 516 793
"2234" 3.751818 516 793
"2235" 3.753346 516 793
"2236" 3.754892 516 793
"2237" 3.756313 516 793
"2238" 3.757696 516 793
"2239" 3.759075 516 793
"2240" 3.760511 516 793
"2241" 3.762011 516 793
"2242" 3.763419 516 793
"2243" 3.764885 516 793
"2244" 3.76636 516 793
"2245" 3.767787 516 793
"2246" 3.769471 516 793
"2247" 3.771104 516 793
"2248" 3.772555 516 793
"2249" 3.774027 516 793
"2250" 3.775408 516 793
"2251" 3.77679 516 793
"2252" 3.778167 516 793
"2253" 3.77954 516 793
"2254" 3.781007 516 793
"2255" 3.782622 516 793
"2256" 3.784103 516 793
"2257" 3.785615 516 793
"2258" 3.78731 516 793
"2259" 3.789009 516 793
"2260" 3.79046 516 793
"2261" 3.791934 516 793
"2262" 3.793492 516 793
"2263" 3.805761 516 793
"2264" 3.807329 516 793
"2265" 3.809009 516 793
"2266" 3.810486 516 793
"2267" 3.811931 516 793
"2268" 3.813368 516 793
"2269" 3.814798 516 793
"2270" 3.816205 516 793
"2271" 3.817606 516 793
"2272" 3.819129 516 793
"2273" 3.820607 516 793
"2274" 3.822105 516 793
"2275" 3.823507 516 793
"2276" 3.824883 516 793
"2277" 3.826299 516 793
"2278" 3.827708 516 793
"2279" 3.829331 516 793
"2280" 3.830878 515 174
"2281" 3.832702 515 160
"2282" 3.834363 515 160
"2283" 3.835797 515 160
"2284" 3.837252 515 160
"2285" 3.8387 515 160
"2286" 3.840149 515 160
"2287" 3.841644 515 160
"2288" 3.843131 515 160
"2289" 3.844667 515 160
"2290" 3.846179 515 160
"2291" 3.847601 515 160
"2292" 3.849256 515 160
"2293" 3.850636 515 160
"2294" 3.852013 515 160
"2295" 3.853502 515 160
"2296" 3.855065 515 160
"2297" 3.856546 515 160
"2298" 3.85812 515 160
"2299" 3.859585 515 160
"2300" 3.860991 515 160
"2301" 3.862393 515 160
"2302" 3.863829 515 160
"2303" 3.865227 515 160
"2304" 3.86663 515 160
"2305" 3.868268 515 160
"2306" 3.869832 515 160
"2307" 3.871416 515 160
"2308" 3.872853 515 160
"2309" 3.874299 515 160
"2310" 3.875731 515 160
"2311" 3.877118 515 160
"2312" 3.87852 515 160
"2313" 3.879902 515 160
"2314" 3.881291 515 160
"2315" 3.88275 515 160
"2316" 3.884145 515 160
"2317" 3.885571 515 160
"2318" 3.886988 515 160
"2319" 3.888694 515 160
"2320" 3.890134 515 160
"2321" 3.891566 515 160
"2322" 3.892953 515 160
"2323" 3.894358 515 160
"2324" 3.895863 515 160
"2325" 3.897267 515 160
"2326" 3.898661 515 160
"2327" 3.900094 515 160
"2328" 3.901492 515 160
"2329" 3.902905 515 160
"2330" 3.904369 515 160
"2331" 3.905811 515 160
"2332" 3.907205 515 160
"2333" 3.908834 515 160
"2334" 3.910407 515 160
"2335" 3.911823 515 160
"2336" 3.913201 515 160
"2337" 3.91458 515 160
"2338" 3.915961 515 160
"2339" 3.917346 515 160
"2340" 3.918794 515 160
"2341" 3.920645 515 160
"2342" 3.922582 515 160
"2343" 3.924274 515 160
"2344" 3.925887 515 160
"2345" 3.927336 515 160
"2346" 3.929015 515 160
"2347" 3.930442 515 160
"2348" 3.931989 515 160
"2349" 3.933818 515 160
"2350" 3.935394 515 160
"2351" 3.93715 515 160
"2352" 3.939004 515 160
"2353" 3.940405 515 160
"2354" 3.941796 515 160
"2355" 3.943205 515 160
"2356" 3.944669 515 160
"2357" 3.95647 515 160
"2358" 3.958317 515 160
"2359" 3.959805 515 160
"2360" 3.961341 515 160
"2361" 3.96285 515 160
"2362" 3.964388 515 160
"2363" 3.965876 515 160
"2364" 3.9673 515 160
"2365" 3.969155 515 160
"2366" 3.970916 515 160
"2367" 3.972585 515 160
"2368" 3.974055 515 160
"2369" 3.975444 515 160
"2370" 3.976875 515 160
"2371" 3.978302 515 160
"2372" 3.979939 516 809
"2373" 3.981627 516 809
"2374" 3.983143 516 809
"2375" 3.984586 516 809
"2376" 3.986093 516 809
"2377" 3.987567 516 809
"2378" 3.989189 516 809
"2379" 3.99058 516 809
"2380" 3.992129 516 809
"2381" 3.993619 516 809
"2382" 3.995113 516 809
"2383" 3.996738 516 809
"2384" 3.998248 516 809
"2385" 3.999671 516 809
"2386" 4.00107 516 809
"2387" 4.002457 516 809
"2388" 4.003983 516 809
"2389" 4.005452 516 809
"2390" 4.006848 516 809
"2391" 4.008503 516 809
"2392" 4.010038 516 809
"2393" 4.011491 516 809
"2394" 4.012899 516 809
"2395" 4.014311 516 809
"2396" 4.01572 516 809
"2397" 4.017143 516 809
"2398" 4.018597 516 809
"2399" 4.020411 516 809
"2400" 4.021972 516 809
"2401" 4.02342 516 809
"2402" 4.024824 516 809
"2403" 4.026241 516 809
"2404" 4.027647 516 809
"2405" 4.029241 516 809
"2406" 4.030676 516 809
"2407" 4.032184 516 809
"2408" 4.033697 516 809
"2409" 4.035379 516 809
"2410" 4.037127 516 809
"2411" 4.03874 516 809
"2412" 4.04026 516 809
"2413" 4.041703 516 809
"2414" 4.043086 516 809
"2415" 4.044487 516 809
"2416" 4.045992 516 809
"2417" 4.047406 516 809
"2418" 4.048974 516 809
"2419" 4.050385 516 809
"2420" 4.051793 516 809
"2421" 4.053185 516 809
"2422" 4.054835 516 809
"2423" 4.056284 516 809
"2424" 4.057661 516 809
"2425" 4.059062 516 809
"2426" 4.060475 516 809
"2427" 4.061893 516 809
"2428" 4.063375 516 809
"2429" 4.064827 516 809
"2430" 4.066346 516 809
"2431" 4.067936 516 809
"2432" 4.069613 516 809
"2433" 4.071117 516 809
"2434" 4.072682 516 809
"2435" 4.074199 516 809
"2436" 4.075675 516 809
"2437" 4.07708 516 809
"2438" 4.078727 516 809
"2439" 4.080268 516 809
"2440" 4.081674 516 809
"2441" 4.083109 516 809
"2442" 4.084511 516 809
"2443" 4.085912 516 809
"2444" 4.087337 516 809
"2445" 4.089095 516 809
"2446" 4.090538 516 809
"2447" 4.091933 516 809
"2448" 4.093431 516 809
"2449" 4.094921 516 809
"2450" 4.106833 516 809
"2451" 4.108565 516 809
"2452" 4.110008 516 809
"2453" 4.111655 516 809
"2454" 4.113094 516 809
"2455" 4.114493 516 809
"2456" 4.115884 516 809
"2457" 4.117282 516 809
"2458" 4.118666 516 809
"2459" 4.120068 516 809
"2460" 4.121541 516 809
"2461" 4.12295 516 809
"2462" 4.124333 516 809
"2463" 4.125835 516 809
"2464" 4.127437 516 809
"2465" 4.129265 516 809
"2466" 4.130784 516 809
"2467" 4.13224 516 809
"2468" 4.133651 516 809
"2469" 4.135077 516 809
"2470" 4.136499 516 809
"2471" 4.138155 516 755
"2472" 4.139902 516 142
"2473" 4.141528 516 142
"2474" 4.143034 516 142
"2475" 4.144563 516 142
"2476" 4.146163 516 142
"2477" 4.14762 516 142
"2478" 4.149308 516 142
"2479" 4.150701 516 142
"2480" 4.152081 516 142
"2481" 4.153546 516 142
"2482" 4.155109 516 142
"2483" 4.156519 516 142
"2484" 4.157925 516 142
"2485" 4.15938 516 142
"2486" 4.161037 516 142
"2487" 4.162589 516 142
"2488" 4.163992 516 142
"2489" 4.165419 516 142
"2490" 4.166967 516 142
"2491" 4.168858 516 142
"2492" 4.170328 516 142
"2493" 4.171859 516 142
"2494" 4.173583 516 142
"2495" 4.175137 516 142
"2496" 4.176749 516 142
"2497" 4.17829 516 142
"2498" 4.179748 516 142
"2499" 4.181243 516 142
"2500" 4.182745 516 142
"2501" 4.184184 516 142
"2502" 4.185659 516 142
"2503" 4.187106 516 142
"2504" 4.188932 516 142
"2505" 4.190471 516 142
"2506" 4.191906 516 142
"2507" 4.193312 516 142
"2508" 4.194711 516 142
"2509" 4.196084 516 142
"2510" 4.197447 516 142
"2511" 4.198884 516 142
"2512" 4.200329 516 142
"2513" 4.201701 516 142
"2514" 4.203088 516 142
"2515" 4.204514 516 142
"2516" 4.205976 516 142
"2517" 4.207462 516 142
"2518" 4.209144 516 142
"2519" 4.210538 516 142
"2520" 4.211924 516 142
"2521" 4.21345 516 142
"2522" 4.214916 516 142
"2523" 4.2163 516 142
"2524" 4.217702 516 142
"2525" 4.219177 516 142
"2526" 4.22071 516 142
"2527" 4.222261 516 142
"2528" 4.223686 516 142
"2529" 4.225098 516 142
"2530" 4.226552 516 142
"2531" 4.22824 516 142
"2532" 4.229676 516 142
"2533" 4.231111 516 142
"2534" 4.23252 516 142
"2535" 4.233915 516 142
"2536" 4.235394 516 142
"2537" 4.236864 516 142
"2538" 4.238537 516 142
"2539" 4.239956 516 142
"2540" 4.241327 516 142
"2541" 4.242692 516 142
"2542" 4.244079 516 142
"2543" 4.245519 516 142
"2544" 4.257272 516 142
"2545" 4.259065 516 142
"2546" 4.26053 516 142
"2547" 4.261947 516 142
"2548" 4.263344 516 142
"2549" 4.264737 516 142
"2550" 4.266121 516 142
"2551" 4.267531 516 142
"2552" 4.269189 516 142
"2553" 4.270809 516 142
"2554" 4.272268 516 142
"2555" 4.273656 516 142
"2556" 4.275117 516 142
"2557" 4.276691 516 142
"2558" 4.278249 516 142
"2559" 4.279718 516 142
"2560" 4.28115 516 142
"2561" 4.282539 516 142
"2562" 4.283967 516 142
"2563" 4.285356 516 142
"2564" 4.286747 516 142
"2565" 4.288509 516 142
"2566" 4.289925 516 142
"2567" 4.291303 516 142
"2568" 4.292692 516 142
"2569" 4.29409 516 142
"2570" 4.295611 516 142
"2571" 4.297157 516 142
"2572" 4.298656 516 142
"2573" 4.300117 516 142
"2574" 4.301505 516 142
"2575" 4.302889 516 142
"2576" 4.304332 516 142
"2577" 4.30589 516 142
"2578" 4.307426 516 142
"2579" 4.309295 516 142
"2580" 4.310841 516 142
"2581" 4.312418 516 844
"2582" 4.314093 516 844
"2583" 4.315611 516 844
"2584" 4.317005 516 844
"2585" 4.318416 516 844
"2586" 4.319808 516 844
"2587" 4.321306 516 844
"2588" 4.322845 516 844
"2589" 4.324247 516 844
"2590" 4.325627 516 844
"2591" 4.327 516 844
"2592" 4.32868 516 844
"2593" 4.330146 516 844
"2594" 4.331527 516 844
"2595" 4.332929 516 844
"2596" 4.334337 516 844
"2597" 4.335719 516 844
"2598" 4.337162 516 844
"2599" 4.338769 516 844
"2600" 4.340413 516 844
"2601" 4.341873 516 844
"2602" 4.343259 516 844
"2603" 4.344681 516 844
"2604" 4.346093 516 844
"2605" 4.347503 516 844
"2606" 4.349186 516 844
"2607" 4.350688 516 844
"2608" 4.352123 516 844
"2609" 4.353516 516 844
"2610" 4.355041 516 844
"2611" 4.356602 516 844
"2612" 4.358023 516 844
"2613" 4.359459 516 844
"2614" 4.360976 516 844
"2615" 4.362442 516 844
"2616" 4.363832 516 844
"2617" 4.36546 516 844
"2618" 4.366938 516 844
"2619" 4.368597 516 844
"2620" 4.370008 516 844
"2621" 4.371693 516 844
"2622" 4.373243 516 844
"2623" 4.374709 516 844
"2624" 4.376109 516 844
"2625" 4.377517 516 844
"2626" 4.378962 516 844
"2627" 4.380347 516 844
"2628" 4.381847 516 844
"2629" 4.383253 516 844
"2630" 4.384646 516 844
"2631" 4.386129 516 844
"2632" 4.387977 516 844
"2633" 4.389829 516 844
"2634" 4.391822 516 844
"2635" 4.393493 516 844
"2636" 4.395169 516 844
"2637" 4.396974 516 844
"2638" 4.409125 516 844
"2639" 4.41085 516 844
"2640" 4.412442 516 844
"2641" 4.413949 516 844
"2642" 4.415342 516 844
"2643" 4.416731 516 844
"2644" 4.418193 516 844
"2645" 4.419691 516 844
"2646" 4.421185 516 844
"2647" 4.422636 516 844
"2648" 4.424046 516 844
"2649" 4.425438 516 844
"2650" 4.426827 516 844
"2651" 4.42857 516 844
"2652" 4.430012 516 844
"2653" 4.431475 516 844
"2654" 4.433 516 844
"2655" 4.434432 516 844
"2656" 4.435872 516 844
"2657" 4.437347 516 844
"2658" 4.438868 516 844
"2659" 4.440374 516 844
"2660" 4.441908 516 844
"2661" 4.443632 516 844
"2662" 4.445374 516 844
"2663" 4.44696 516 844
"2664" 4.448615 516 844
"2665" 4.450414 516 42
"2666" 4.452112 516 42
"2667" 4.453582 516 42
"2668" 4.455173 516 42
"2669" 4.456699 516 42
"2670" 4.458203 516 42
"2671" 4.459812 516 42
"2672" 4.461273 516 42
"2673" 4.462752 516 42
"2674" 4.464241 516 42
"2675" 4.465648 516 42
"2676" 4.467055 516 42
"2677" 4.468734 516 42
"2678" 4.470222 516 42
"2679" 4.471762 516 42
"2680" 4.473233 516 42
"2681" 4.47489 516 42
"2682" 4.476377 516 42
"2683" 4.477838 516 42
"2684" 4.479287 516 42
"2685" 4.480661 516 42
"2686" 4.482069 516 42
"2687" 4.483486 516 42
"2688" 4.484901 516 42
"2689" 4.486373 516 42
"2690" 4.487928 516 42
"2691" 4.489641 516 42
"2692" 4.491141 516 42
"2693" 4.492811 516 42
"2694" 4.494357 516 42
"2695" 4.49577 516 42
"2696" 4.497187 516 42
"2697" 4.498636 516 42
"2698" 4.50002 516 42
"2699" 4.501904 516 42
"2700" 4.503516 516 42
"2701" 4.505365 516 42
"2702" 4.506956 516 42
"2703" 4.508717 516 42
"2704" 4.510184 516 42
"2705" 4.51156 516 42
"2706" 4.512954 516 42
"2707" 4.514332 516 42
"2708" 4.515789 516 42
"2709" 4.517253 516 42
"2710" 4.518657 516 42
"2711" 4.520286 516 42
"2712" 4.521787 516 42
"2713" 4.523459 516 42
"2714" 4.524997 516 42
"2715" 4.52658 516 42
"2716" 4.528278 516 42
"2717" 4.529778 516 42
"2718" 4.531349 516 42
"2719" 4.5328 516 42
"2720" 4.534198 516 42
"2721" 4.535697 516 42
"2722" 4.537186 516 42
"2723" 4.538706 516 42
"2724" 4.540203 516 42
"2725" 4.54159 516 42
"2726" 4.542963 516 42
"2727" 4.54437 516 42
"2728" 4.545833 516 42
"2729" 4.547383 516 42
"2730" 4.559516 516 42
"2731" 4.561102 516 42
"2732" 4.56265 516 42
"2733" 4.564135 516 42
"2734" 4.565604 516 42
"2735" 4.567068 516 42
"2736" 4.568694 516 42
"2737" 4.570271 516 42
"2738" 4.572012 516 42
"2739" 4.573564 516 42
"2740" 4.575034 516 42
"2741" 4.576418 516 42
"2742" 4.577834 516 42
"2743" 4.579425 516 42
"2744" 4.58098 516 42
"2745" 4.582484 516 42
"2746" 4.583887 516 42
"2747" 4.58533 516 42
"2748" 4.586759 516 42
"2749" 4.588695 516 42
"2750" 4.590244 516 42
"2751" 4.591809 516 42
"2752" 4.593472 517 958
"2753" 4.595289 517 958
"2754" 4.59681 517 958
"2755" 4.598219 517 958
"2756" 4.599746 517 958
"2757" 4.601286 517 958
"2758" 4.602796 517 958
"2759" 4.604401 517 958
"2760" 4.606063 517 958
"2761" 4.60754 517 958
"2762" 4.609271 517 958
"2763" 4.610686 517 958
"2764" 4.612086 517 958
"2765" 4.61353 517 958
"2766" 4.614959 517 958
"2767" 4.616457 517 958
"2768" 4.618005 517 958
"2769" 4.619543 517 958
"2770" 4.621039 517 958
"2771" 4.622514 517 958
"2772" 4.62407 517 958
"2773" 4.625796 517 958
"2774" 4.627459 517 958
"2775" 4.629258 517 958
"2776" 4.630693 517 958
"2777" 4.632117 517 958
"2778" 4.634176 517 958
"2779" 4.635908 517 958
"2780" 4.637472 517 958
"2781" 4.638944 517 958
"2782" 4.640378 517 958
"2783" 4.64184 517 958
"2784" 4.643253 517 958
"2785" 4.64481 517 958
"2786" 4.646379 517 958
"2787" 4.647911 517 958
"2788" 4.649692 517 958
"2789" 4.65142 517 958
"2790" 4.652983 517 958
"2791" 4.654628 517 958
"2792" 4.656216 517 958
"2793" 4.657634 517 958
"2794" 4.659141 517 958
"2795" 4.660589 517 958
"2796" 4.661997 517 958
"2797" 4.663533 517 958
"2798" 4.665148 517 958
"2799" 4.666802 517 958
"2800" 4.668744 517 958
"2801" 4.670504 517 958
"2802" 4.672427 517 958
"2803" 4.674187 517 958
"2804" 4.675857 517 958
"2805" 4.677618 517 958
"2806" 4.679204 517 958
"2807" 4.68083 517 958
"2808" 4.68229 517 958
"2809" 4.683843 517 958
"2810" 4.685412 517 958
"2811" 4.686833 517 958
"2812" 4.688651 517 958
"2813" 4.690173 517 958
"2814" 4.692023 517 958
"2815" 4.69377 517 958
"2816" 4.695251 517 958
"2817" 4.696877 517 958
"2818" 4.69856 517 958
"2819" 4.710763 517 958
"2820" 4.712577 517 958
"2821" 4.714159 517 958
"2822" 4.71567 517 958
"2823" 4.717354 517 958
"2824" 4.718847 517 958
"2825" 4.720244 517 958
"2826" 4.721765 517 958
"2827" 4.723221 517 958
"2828" 4.724647 517 958
"2829" 4.726034 517 958
"2830" 4.727418 517 958
"2831" 4.729105 517 958
"2832" 4.730697 517 958
"2833" 4.732216 517 958
"2834" 4.733695 517 958
"2835" 4.735088 517 958
"2836" 4.736491 517 958
"2837" 4.737927 517 958
"2838" 4.739366 517 958
"2839" 4.74078 517 958
"2840" 4.742174 517 958
"2841" 4.743679 517 958
"2842" 4.745185 517 958
"2843" 4.746593 517 958
"2844" 4.748299 517 958
"2845" 4.749764 517 958
"2846" 4.751143 517 958
"2847" 4.752616 517 958
"2848" 4.7543 517 958
"2849" 4.756032 517 958
"2850" 4.757829 517 958
"2851" 4.759449 517 958
"2852" 4.761046 517 958
"2853" 4.762474 517 958
"2854" 4.763884 517 958
"2855" 4.765405 517 958
"2856" 4.767108 516 0
"2857" 4.769083 516 0
"2858" 4.770942 516 0
"2859" 4.77256 516 0
"2860" 4.774008 516 0
"2861" 4.775441 516 0
"2862" 4.776939 516 0
"2863" 4.778442 516 0
"2864" 4.779898 516 0
"2865" 4.781339 516 0
"2866" 4.782714 516 0
"2867" 4.78423 516 0
"2868" 4.785703 516 0
"2869" 4.787141 516 0
"2870" 4.788878 516 0
"2871" 4.790334 516 0
"2872" 4.791987 516 0
"2873" 4.793456 516 0
"2874" 4.794834 516 0
"2875" 4.796228 516 0
"2876" 4.797598 516 0
"2877" 4.799024 516 0
"2878" 4.800461 516 0
"2879" 4.801826 516 0
"2880" 4.803207 516 0
"2881" 4.804686 516 0
"2882" 4.806141 516 0
"2883" 4.8076 516 0
"2884" 4.809233 516 0
"2885" 4.810743 516 0
"2886" 4.812143 516 0
"2887" 4.813511 516 0
"2888" 4.814878 516 0
"2889" 4.816248 516 0
"2890" 4.817704 516 0
"2891" 4.819355 516 0
"2892" 4.820896 516 0
"2893" 4.822488 516 0
"2894" 4.823967 516 0
"2895" 4.825378 516 0
"2896" 4.826815 516 0
"2897" 4.828539 516 0
"2898" 4.829964 516 0
"2899" 4.83144 516 0
"2900" 4.83283 516 0
"2901" 4.834228 516 0
"2902" 4.835613 516 0
"2903" 4.837003 516 0
"2904" 4.83866 516 0
"2905" 4.840368 516 0
"2906" 4.841822 516 0
"2907" 4.843322 516 0
"2908" 4.844736 516 0
"2909" 4.846132 516 0
"2910" 4.847523 516 0
"2911" 4.849273 516 0
"2912" 4.861081 516 0
"2913" 4.862586 516 0
"2914" 4.863985 516 0
"2915" 4.865375 516 0
"2916" 4.866759 516 0
"2917" 4.868345 516 0
"2918" 4.869862 516 0
"2919" 4.871548 516 0
"2920" 4.873237 516 0
"2921" 4.874769 516 0
"2922" 4.876259 516 0
"2923" 4.87774 516 0
"2924" 4.879214 516 0
"2925" 4.880726 516 0
"2926" 4.882217 516 0
"2927" 4.883621 516 0
"2928" 4.88502 516 0
"2929" 4.88651 516 0
"2930" 4.88816 516 0
"2931" 4.889754 516 0
"2932" 4.891216 516 0
"2933" 4.892625 516 0
"2934" 4.894083 516 0
"2935" 4.895478 516 0
"2936" 4.89687 516 0
"2937" 4.898325 516 0
"2938" 4.899743 516 0
"2939" 4.901246 516 0
"2940" 4.90267 516 0
"2941" 4.904117 516 0
"2942" 4.905599 516 0
"2943" 4.907014 516 0
"2944" 4.90862 516 0
"2945" 4.910122 516 0
"2946" 4.911656 516 0
"2947" 4.91315 516 0
"2948" 4.914554 516 0
"2949" 4.916043 516 1022
"2950" 4.917843 516 1022
"2951" 4.919382 516 1022
"2952" 4.920835 516 1022
"2953" 4.92235 516 1022
"2954" 4.923906 516 1022
"2955" 4.925509 516 1022
"2956" 4.926922 516 1022
"2957" 4.928537 516 1022
"2958" 4.929937 516 1022
"2959" 4.931407 516 1022
"2960" 4.932859 516 1022
"2961" 4.934384 516 1022
"2962" 4.935892 516 1022
"2963" 4.937282 516 1022
"2964" 4.938782 516 1022
"2965" 4.940222 516 1022
"2966" 4.941614 516 1022
"2967" 4.943007 516 1022
"2968" 4.944509 516 1022
"2969" 4.945968 516 1022
"2970" 4.947443 516 1022
"2971" 4.949121 516 1022
"2972" 4.950641 516 1022
"2973" 4.952102 516 1022
"2974" 4.953602 516 1022
"2975" 4.955118 516 1022
"2976" 4.9566 516 1022
"2977" 4.958035 516 1022
"2978" 4.959477 516 1022
"2979" 4.96091 516 1022
"2980" 4.962323 516 1022
"2981" 4.963733 516 1022
"2982" 4.965231 516 1022
"2983" 4.967018 516 1022
"2984" 4.968866 516 1022
"2985" 4.970435 516 1022
"2986" 4.972008 516 1022
"2987" 4.973515 516 1022
"2988" 4.974912 516 1022
"2989" 4.976327 516 1022
"2990" 4.977712 516 1022
"2991" 4.979078 516 1022
"2992" 4.980448 516 1022
"2993" 4.981917 516 1022
"2994" 4.983617 516 1022
"2995" 4.985212 516 1022
"2996" 4.986743 516 1022
"2997" 4.988445 516 1022
"2998" 4.989901 516 1022
"2999" 4.991479 516 1022
"3000" 4.992978 516 1022
"3001" 4.994539 516 1022
"3002" 4.996126 516 1022
"3003" 4.997692 516 1022
"3004" 4.999231 516 1022
"3005" 5.000795 516 1022
"3006" 5.012397 516 1022
"3007" 5.0141 516 1022
"3008" 5.0156 516 1022
"3009" 5.017046 516 1022
"3010" 5.018523 516 1022
"3011" 5.020244 516 1022
"3012" 5.02174 516 1022
"3013" 5.023225 516 1022
"3014" 5.02464 516 1022
"3015" 5.026013 516 1022
"3016" 5.027384 516 1022
"3017" 5.028992 516 1022
"3018" 5.030407 516 1022
"3019" 5.031768 516 1022
"3020" 5.033144 516 1022
"3021" 5.034539 516 1022
"3022" 5.035929 516 1022
"3023" 5.037292 516 1022
"3024" 5.038755 516 1022
"3025" 5.040159 516 1022
"3026" 5.041564 516 1022
"3027" 5.042967 516 1022
"3028" 5.044391 516 1022
"3029" 5.045962 516 1022
"3030" 5.047845 516 0
"3031" 5.0499 516 0
"3032" 5.051882 516 0
"3033" 5.053654 516 0
"3034" 5.055403 516 0
"3035" 5.057149 516 0
"3036" 5.058896 516 0
"3037" 5.060653 516 0
"3038" 5.062333 516 0
"3039" 5.063763 516 0
"3040" 5.065403 516 0
"3041" 5.066973 516 0
"3042" 5.068702 516 0
"3043" 5.070161 516 0
"3044" 5.07172 516 0
"3045" 5.073248 516 0
"3046" 5.075024 516 0
"3047" 5.076801 516 0
"3048" 5.078427 516 0
"3049" 5.079945 516 0
"3050" 5.081501 516 0
"3051" 5.083002 516 0
"3052" 5.084385 516 0
"3053" 5.085796 516 0
"3054" 5.087345 516 0
"3055" 5.089328 516 0
"3056" 5.090872 516 0
"3057" 5.092307 516 0
"3058" 5.093807 516 0
"3059" 5.095268 516 0
"3060" 5.096669 516 0
"3061" 5.09813 516 0
"3062" 5.099526 516 0
"3063" 5.100932 516 0
"3064" 5.102316 516 0
"3065" 5.103696 516 0
"3066" 5.105124 516 0
"3067" 5.106564 516 0
"3068" 5.108277 516 0
"3069" 5.109755 516 0
"3070" 5.111206 516 0
"3071" 5.112668 516 0
"3072" 5.114167 516 0
"3073" 5.115753 516 0
"3074" 5.1173 516 0
"3075" 5.118904 516 0
"3076" 5.120415 516 0
"3077" 5.121933 516 0
"3078" 5.123471 516 0
"3079" 5.124865 516 0
"3080" 5.126257 516 0
"3081" 5.127842 516 0
"3082" 5.129468 516 0
"3083" 5.131011 516 0
"3084" 5.132525 516 0
"3085" 5.134 516 0
"3086" 5.135443 516 0
"3087" 5.136927 516 0
"3088" 5.138403 516 0
"3089" 5.139976 516 0
"3090" 5.14155 516 0
"3091" 5.143033 516 0
"3092" 5.144423 516 0
"3093" 5.145832 516 0
"3094" 5.147293 516 0
"3095" 5.148858 516 0
"3096" 5.150243 516 0
"3097" 5.151672 516 0
"3098" 5.163448 516 0
"3099" 5.164973 516 0
"3100" 5.166382 516 0
"3101" 5.167776 516 0
"3102" 5.169408 516 0
"3103" 5.171028 516 0
"3104" 5.172847 516 0
"3105" 5.174429 516 0
"3106" 5.175998 516 0
"3107" 5.177565 516 0
"3108" 5.178995 516 0
"3109" 5.180397 516 0
"3110" 5.181848 516 0
"3111" 5.183246 516 0
"3112" 5.184654 516 0
"3113" 5.186157 516 0
"3114" 5.187777 516 0
"3115" 5.18948 516 0
"3116" 5.191049 516 0
"3117" 5.19253 516 0
"3118" 5.194046 516 0
"3119" 5.195593 516 0
"3120" 5.197048 516 0
"3121" 5.19856 516 0
"3122" 5.200062 516 0
"3123" 5.201458 516 0
"3124" 5.202858 516 0
"3125" 5.204292 516 0
"3126" 5.206012 516 0
"3127" 5.207525 516 0
"3128" 5.209164 516 0
"3129" 5.210589 516 0
"3130" 5.2121 516 0
"3131" 5.213531 516 0
"3132" 5.215032 516 0
"3133" 5.21656 516 0
"3134" 5.218135 516 0
"3135" 5.219699 516 0
"3136" 5.221282 516 0
"3137" 5.223186 516 1022
"3138" 5.225086 516 1022
"3139" 5.226658 516 1022
"3140" 5.228509 516 1022
"3141" 5.230183 516 1022
"3142" 5.231749 516 1022
"3143" 5.23317 516 1022
"3144" 5.234572 516 1022
"3145" 5.236129 516 1022
"3146" 5.237682 516 1022
"3147" 5.239253 516 1022
"3148" 5.24068 516 1022
"3149" 5.242103 516 1022
"3150" 5.243715 516 1022
"3151" 5.245187 516 1022
"3152" 5.246632 516 1022
"3153" 5.248439 516 1022
"3154" 5.250023 516 1022
"3155" 5.251544 516 1022
"3156" 5.253114 516 1022
"3157" 5.254604 516 1022
"3158" 5.256068 516 1022
"3159" 5.257463 516 1022
"3160" 5.258873 516 1022
"3161" 5.260306 516 1022
"3162" 5.261693 516 1022
"3163" 5.26306 516 1022
"3164" 5.264441 516 1022
"3165" 5.265809 516 1022
"3166" 5.26725 516 1022
"3167" 5.268876 516 1022
"3168" 5.270552 516 1022
"3169" 5.272117 516 1022
"3170" 5.273725 516 1022
"3171" 5.27522 516 1022
"3172" 5.276695 516 1022
"3173" 5.278089 516 1022
"3174" 5.279744 516 1022
"3175" 5.281294 516 1022
"3176" 5.282707 516 1022
"3177" 5.284109 516 1022
"3178" 5.285503 516 1022
"3179" 5.287028 516 1022
"3180" 5.288751 516 1022
"3181" 5.290408 516 1022
"3182" 5.291972 516 1022
"3183" 5.293446 516 1022
"3184" 5.294849 516 1022
"3185" 5.29646 516 1022
"3186" 5.29796 516 1022
"3187" 5.299408 516 1022
"3188" 5.300853 516 1022
"3189" 5.302339 516 1022
"3190" 5.314743 516 1022
"3191" 5.316507 516 1022
"3192" 5.31796 516 1022
"3193" 5.319435 516 1022
"3194" 5.32084 516 1022
"3195" 5.322312 516 1022
"3196" 5.323744 516 1022
"3197" 5.325225 516 1022
"3198" 5.326677 516 1022
"3199" 5.32832 516 1022
"3200" 5.329835 516 1022
"3201" 5.331322 516 1022
"3202" 5.332716 516 1022
"3203" 5.334121 516 1022
"3204" 5.335509 516 1022
"3205" 5.336884 516 1022
"3206" 5.338284 516 1022
"3207" 5.339715 516 1022
"3208" 5.341218 516 1022
"3209" 5.342638 516 1022
"3210" 5.344319 516 1022
"3211" 5.345984 516 1022
"3212" 5.347432 516 1022
"3213" 5.349654 516 1022
"3214" 5.351368 516 1022
"3215" 5.352971 516 1022
"3216" 5.354487 516 1022
"3217" 5.356061 516 1022
"3218" 5.357725 516 1022
"3219" 5.359389 516 1022
"3220" 5.360934 516 1022
"3221" 5.362326 516 1022
"3222" 5.363691 516 1022
"3223" 5.365088 516 1022
"3224" 5.366501 516 1022
"3225" 5.368145 516 1022
"3226" 5.369559 516 1022
"3227" 5.370949 516 1022
"3228" 5.372487 516 1022
"3229" 5.374078 516 1022
"3230" 5.375666 516 1022
"3231" 5.377158 516 1022
"3232" 5.378683 516 0
"3233" 5.380249 516 0
"3234" 5.381656 516 0
"3235" 5.383073 516 0
"3236" 5.384678 516 0
"3237" 5.386268 516 0
"3238" 5.387794 516 0
"3239" 5.38966 516 0
"3240" 5.391178 516 0
"3241" 5.392561 516 0
"3242" 5.39396 516 0
"3243" 5.39551 516 0
"3244" 5.39691 516 0
"3245" 5.398305 516 0
"3246" 5.399673 516 0
"3247" 5.401045 516 0
"3248" 5.402439 516 0
"3249" 5.403863 516 0
"3250" 5.405343 516 0
"3251" 5.406888 516 0
"3252" 5.408637 516 0
"3253" 5.410098 516 0
"3254" 5.411473 516 0
"3255" 5.41285 516 0
"3256" 5.414222 516 0
"3257" 5.415599 516 0
"3258" 5.417035 516 0
"3259" 5.418451 516 0
"3260" 5.419858 516 0
"3261" 5.421307 516 0
"3262" 5.422798 516 0
"3263" 5.424233 516 0
"3264" 5.425812 516 0
"3265" 5.427345 516 0
"3266" 5.428943 516 0
"3267" 5.430521 516 0
"3268" 5.432 516 0
"3269" 5.433484 516 0
"3270" 5.434933 516 0
"3271" 5.436357 516 0
"3272" 5.43777 516 0
"3273" 5.439278 516 0
"3274" 5.440709 516 0
"3275" 5.44213 516 0
"3276" 5.443599 516 0
"3277" 5.445056 516 0
"3278" 5.446627 516 0
"3279" 5.448331 516 0
"3280" 5.449747 516 0
"3281" 5.451153 516 0
"3282" 5.452604 516 0
"3283" 5.464702 516 0
"3284" 5.466251 516 0
"3285" 5.467652 516 0
"3286" 5.469408 516 0
"3287" 5.470947 516 0
"3288" 5.472566 516 0
"3289" 5.474056 516 0
"3290" 5.475529 516 0
"3291" 5.477059 516 0
"3292" 5.478488 516 0
"3293" 5.479945 516 0
"3294" 5.481345 516 0
"3295" 5.482725 516 0
"3296" 5.484164 516 0
"3297" 5.485596 516 0
"3298" 5.487071 516 0
"3299" 5.488832 516 0
"3300" 5.490373 516 0
"3301" 5.491875 516 0
"3302" 5.493483 516 0
"3303" 5.495099 516 0
"3304" 5.496731 516 0
"3305" 5.498226 516 0
"3306" 5.499649 516 0
"3307" 5.50104 516 0
"3308" 5.502902 516 0
"3309" 5.504297 516 0
"3310" 5.505766 516 0
"3311" 5.507212 516 0
"3312" 5.50889 516 0
"3313" 5.510398 516 0
"3314" 5.511845 516 0
"3315" 5.513303 515 0
"3316" 5.515027 515 1022
"3317" 5.516598 515 1022
"3318" 5.518245 515 1022
"3319" 5.51994 515 1022
"3320" 5.521708 515 1022
"3321" 5.523338 515 1022
"3322" 5.524821 515 1022
"3323" 5.526354 515 1022
"3324" 5.527822 515 1022
"3325" 5.529454 515 1022
"3326" 5.530869 515 1022
"3327" 5.532282 515 1022
"3328" 5.533799 515 1022
"3329" 5.535244 515 1022
"3330" 5.536637 515 1022
"3331" 5.538043 515 1022
"3332" 5.539649 515 1022
"3333" 5.541063 515 1022
"3334" 5.542476 515 1022
"3335" 5.543869 515 1022
"3336" 5.5453 515 1022
"3337" 5.546729 515 1022
"3338" 5.548317 515 1022
"3339" 5.549767 515 1022
"3340" 5.551163 515 1022
"3341" 5.552561 515 1022
"3342" 5.553976 515 1022
"3343" 5.555486 515 1022
"3344" 5.556972 515 1022
"3345" 5.558365 515 1022
"3346" 5.559774 515 1022
"3347" 5.561266 515 1022
"3348" 5.562819 515 1022
"3349" 5.564236 515 1022
"3350" 5.565808 515 1022
"3351" 5.56732 515 1022
"3352" 5.568955 515 1022
"3353" 5.570534 515 1022
"3354" 5.572021 515 1022
"3355" 5.573595 515 1022
"3356" 5.575159 515 1022
"3357" 5.576612 515 1022
"3358" 5.578122 515 1022
"3359" 5.579716 515 1022
"3360" 5.581277 515 1022
"3361" 5.582777 515 1022
"3362" 5.584181 515 1022
"3363" 5.58557 515 1022
"3364" 5.586961 515 1022
"3365" 5.588647 515 1022
"3366" 5.590094 515 1022
"3367" 5.591523 515 1022
"3368" 5.592934 515 1022
"3369" 5.594363 515 1022
"3370" 5.595753 515 1022
"3371" 5.597188 515 1022
"3372" 5.598759 515 1022
"3373" 5.600304 515 1022
"3374" 5.601795 515 1022
"3375" 5.60324 515 1022
"3376" 5.614888 515 1022
"3377" 5.616583 515 1022
"3378" 5.618072 515 1022
"3379" 5.619503 515 1022
"3380" 5.620975 515 1022
"3381" 5.622459 515 1022
"3382" 5.624003 515 1022
"3383" 5.625508 515 1022
"3384" 5.627016 515 1022
"3385" 5.628873 515 1022
"3386" 5.630467 515 1022
"3387" 5.631941 515 1022
"3388" 5.633388 515 1022
"3389" 5.634781 515 1022
"3390" 5.636231 515 1022
"3391" 5.637627 515 1022
"3392" 5.639075 515 1022
"3393" 5.640601 515 1022
"3394" 5.642247 515 1022
"3395" 5.643749 515 1022
"3396" 5.645323 515 1022
"3397" 5.64674 515 1022
"3398" 5.648349 515 1022
"3399" 5.649849 515 1022
"3400" 5.651313 515 1022
"3401" 5.652781 515 1022
"3402" 5.654218 515 1022
"3403" 5.655686 515 1022
"3404" 5.657196 515 1022
"3405" 5.658677 515 1022
"3406" 5.660509 515 0
"3407" 5.662232 515 0
"3408" 5.663682 515 0
"3409" 5.665272 515 0
"3410" 5.66673 515 0
"3411" 5.668477 515 0
"3412" 5.670043 515 0
"3413" 5.671535 515 0
"3414" 5.673078 515 0
"3415" 5.674548 515 0
"3416" 5.67602 515 0
"3417" 5.677443 515 0
"3418" 5.67888 515 0
"3419" 5.68033 515 0
"3420" 5.681753 515 0
"3421" 5.683156 515 0
"3422" 5.684574 515 0
"3423" 5.685979 515 0
"3424" 5.687392 515 0
"3425" 5.689332 515 0
"3426" 5.690917 515 0
"3427" 5.692435 515 0
"3428" 5.693856 515 0
"3429" 5.695351 515 0
"3430" 5.696803 515 0
"3431" 5.698179 515 0
"3432" 5.699569 515 0
"3433" 5.700938 515 0
"3434" 5.702316 515 0
"3435" 5.703719 515 0
"3436" 5.705286 515 0
"3437" 5.706784 515 0
"3438" 5.708391 515 0
"3439" 5.71004 515 0
"3440" 5.711528 515 0
"3441" 5.712933 515 0
"3442" 5.714333 515 0
"3443" 5.715753 515 0
"3444" 5.71717 515 0
"3445" 5.718621 515 0
"3446" 5.720148 515 0
"3447" 5.721609 515 0
"3448" 5.723086 515 0
"3449" 5.72451 515 0
"3450" 5.725928 515 0
"3451" 5.727316 515 0
"3452" 5.729043 515 0
"3453" 5.73055 515 0
"3454" 5.73197 515 0
"3455" 5.733412 515 0
"3456" 5.734795 515 0
"3457" 5.736181 515 0
"3458" 5.737579 515 0
"3459" 5.739068 515 0
"3460" 5.740556 515 0
"3461" 5.741968 515 0
"3462" 5.74336 515 0
"3463" 5.74484 515 0
"3464" 5.746242 515 0
"3465" 5.747675 515 0
"3466" 5.749404 515 0
"3467" 5.750873 515 0
"3468" 5.752378 515 0
"3469" 5.753927 515 0
"3470" 5.765962 515 0
"3471" 5.767462 515 0
"3472" 5.769102 515 0
"3473" 5.770657 515 0
"3474" 5.77212 515 0
"3475" 5.773657 515 0
"3476" 5.775092 515 0
"3477" 5.776666 515 0
"3478" 5.77809 515 0
"3479" 5.779502 515 0
"3480" 5.780879 515 0
"3481" 5.78225 515 0
"3482" 5.783627 515 0
"3483" 5.785166 515 0
"3484" 5.786657 515 0
"3485" 5.788348 515 0
"3486" 5.789918 515 0
"3487" 5.791329 515 0
"3488" 5.792736 515 0
"3489" 5.794166 515 0
"3490" 5.795596 515 0
"3491" 5.797104 515 0
"3492" 5.79851 515 0
"3493" 5.799927 515 0
"3494" 5.801414 515 0
"3495" 5.802818 515 0
"3496" 5.804262 515 0
"3497" 5.806184 514 1006
"3498" 5.807874 514 1006
"3499" 5.809539 514 1006
"3500" 5.811045 514 1006
"3501" 5.812474 514 1006
"3502" 5.813906 514 1006
"3503" 5.815404 514 1006
"3504" 5.816823 514 1006
"3505" 5.818306 514 1006
"3506" 5.819766 514 1006
"3507" 5.821182 514 1006
"3508" 5.82267 514 1006
"3509" 5.82408 514 1006
"3510" 5.825461 514 1006
"3511" 5.826959 514 1006
"3512" 5.828686 514 1006
"3513" 5.830213 514 1006
"3514" 5.831626 514 1006
"3515" 5.833025 514 1006
"3516" 5.834414 514 1006
"3517" 5.835857 514 1006
"3518" 5.837445 514 1006
"3519" 5.83903 514 1006
"3520" 5.840554 514 1006
"3521" 5.842013 514 1006
"3522" 5.843389 514 1006
"3523" 5.844792 514 1006
"3524" 5.846198 514 1006
"3525" 5.847577 514 1006
"3526" 5.849222 514 1006
"3527" 5.850608 514 1006
"3528" 5.852146 514 1006
"3529" 5.853654 514 1006
"3530" 5.855138 514 1006
"3531" 5.856663 514 1006
"3532" 5.858045 514 1006
"3533" 5.859457 514 1006
"3534" 5.860892 514 1006
"3535" 5.862279 514 1006
"3536" 5.863661 514 1006
"3537" 5.865032 514 1006
"3538" 5.866434 514 1006
"3539" 5.868042 514 1006
"3540" 5.869546 514 1006
"3541" 5.871068 514 1006
"3542" 5.872773 514 1006
"3543" 5.874397 514 1006
"3544" 5.875892 514 1006
"3545" 5.87733 514 1006
"3546" 5.878779 514 1006
"3547" 5.880186 514 1006
"3548" 5.881628 514 1006
"3549" 5.883101 514 1006
"3550" 5.884641 514 1006
"3551" 5.886106 514 1006
"3552" 5.887502 514 1006
"3553" 5.889272 514 1006
"3554" 5.890829 514 1006
"3555" 5.892254 514 1006
"3556" 5.893729 514 1006
"3557" 5.895264 514 1006
"3558" 5.896694 514 1006
"3559" 5.898202 514 1006
"3560" 5.899745 514 1006
"3561" 5.901241 514 1006
"3562" 5.902742 514 1006
"3563" 5.904356 514 1006
"3564" 5.916606 514 1006
"3565" 5.918331 514 1006
"3566" 5.919819 514 1006
"3567" 5.921225 514 1006
"3568" 5.92269 514 1006
"3569" 5.924126 514 1006
"3570" 5.925521 514 1006
"3571" 5.926953 514 1006
"3572" 5.929132 514 1006
"3573" 5.930772 514 1006
"3574" 5.932448 514 1006
"3575" 5.934223 514 1006
"3576" 5.935844 514 1006
"3577" 5.937315 514 1006
"3578" 5.938859 514 1006
"3579" 5.940466 514 1006
"3580" 5.941941 514 1006
"3581" 5.943581 513 13
"3582" 5.94516 513 13
"3583" 5.946551 513 13
"3584" 5.948262 513 13
"3585" 5.949753 513 13
"3586" 5.951247 513 13
"3587" 5.952703 513 13
"3588" 5.954088 513 13
"3589" 5.955534 513 13
"3590" 5.957064 513 13
"3591" 5.95855 513 13
"3592" 5.959993 513 13
"3593" 5.961362 513 13
"3594" 5.962788 513 13
"3595" 5.964279 513 13
"3596" 5.965842 513 13
"3597" 5.967294 513 13
"3598" 5.969031 513 13
"3599" 5.970445 513 13
"3600" 5.971961 513 13
"3601" 5.973487 513 13
"3602" 5.974969 513 13
"3603" 5.976382 513 13
"3604" 5.977767 513 13
"3605" 5.979147 513 13
"3606" 5.980628 513 13
"3607" 5.982191 513 13
"3608" 5.983607 513 13
"3609" 5.984994 513 13
"3610" 5.986542 513 13
"3611" 5.988253 513 13
"3612" 5.990081 513 13
"3613" 5.991589 513 13
"3614" 5.993092 513 13
"3615" 5.994605 513 13
"3616" 5.996056 513 13
"3617" 5.997528 513 13
"3618" 5.998918 513 13
"3619" 6.000343 513 13
"3620" 6.001737 513 13
"3621" 6.003113 513 13
"3622" 6.004542 513 13
"3623" 6.006133 513 13
"3624" 6.007598 513 13
"3625" 6.00936 513 13
"3626" 6.010862 513 13
"3627" 6.012318 513 13
"3628" 6.013704 513 13
"3629" 6.015156 513 13
"3630" 6.016644 513 13
"3631" 6.018034 513 13
"3632" 6.019415 513 13
"3633" 6.020864 513 13
"3634" 6.02236 513 13
"3635" 6.023865 513 13
"3636" 6.025266 513 13
"3637" 6.02664 513 13
"3638" 6.028297 513 13
"3639" 6.029968 513 13
"3640" 6.031476 513 13
"3641" 6.03288 513 13
"3642" 6.034282 513 13
"3643" 6.035682 513 13
"3644" 6.037073 513 13
"3645" 6.038489 513 13
"3646" 6.039975 513 13
"3647" 6.04138 513 13
"3648" 6.042796 513 13
"3649" 6.044405 513 13
"3650" 6.045946 513 13
"3651" 6.047348 513 13
"3652" 6.048891 513 13
"3653" 6.050305 513 13
"3654" 6.051692 513 13
"3655" 6.053145 513 13
"3656" 6.054657 513 13
"3657" 6.067456 513 13
"3658" 6.069302 513 13
"3659" 6.070903 513 13
"3660" 6.07249 513 13
"3661" 6.074008 513 13
"3662" 6.075565 513 13
"3663" 6.076972 513 13
"3664" 6.07844 513 13
"3665" 6.079937 513 13
"3666" 6.081326 513 13
"3667" 6.082702 513 13
"3668" 6.084092 513 13
"3669" 6.085508 513 13
"3670" 6.086903 513 13
"3671" 6.088517 513 13
"3672" 6.090036 513 13
"3673" 6.091461 513 13
"3674" 6.092846 513 13
"3675" 6.094234 513 13
"3676" 6.095625 513 13
"3677" 6.09709 513 13
"3678" 6.098563 513 13
"3679" 6.10009 513 13
"3680" 6.101544 513 13
"3681" 6.103008 513 13
"3682" 6.104397 513 13
"3683" 6.105866 513 13
"3684" 6.107364 513 13
"3685" 6.109014 513 13
"3686" 6.110431 513 13
"3687" 6.111889 513 13
"3688" 6.113314 513 13
"3689" 6.114717 513 13
"3690" 6.116107 513 13
"3691" 6.117677 513 862
"3692" 6.119485 513 863
"3693" 6.12115 513 863
"3694" 6.122805 513 863
"3695" 6.124358 513 863
"3696" 6.125818 513 863
"3697" 6.12722 513 863
"3698" 6.128845 513 863
"3699" 6.13026 513 863
"3700" 6.131644 513 863
"3701" 6.133113 513 863
"3702" 6.134492 513 863
"3703" 6.13589 513 863
"3704" 6.13729 513 863
"3705" 6.138697 513 863
"3706" 6.140158 513 863
"3707" 6.14156 513 863
"3708" 6.142966 513 863
"3709" 6.144478 513 863
"3710" 6.145983 513 863
"3711" 6.147373 513 863
"3712" 6.149003 513 863
"3713" 6.150411 513 863
"3714" 6.151894 513 863
"3715" 6.153492 513 863
"3716" 6.154908 513 863
"3717" 6.156384 513 863
"3718" 6.157822 513 863
"3719" 6.159214 513 863
"3720" 6.160607 513 863
"3721" 6.162024 513 863
"3722" 6.163411 513 863
"3723" 6.164812 513 863
"3724" 6.16624 513 863
"3725" 6.167633 513 863
"3726" 6.16927 513 863
"3727" 6.170761 513 863
"3728" 6.17254 513 863
"3729" 6.174073 513 863
"3730" 6.175613 513 863
"3731" 6.177123 513 863
"3732" 6.178717 513 863
"3733" 6.180275 513 863
"3734" 6.1817 513 863
"3735" 6.183206 513 863
"3736" 6.184709 513 863
"3737" 6.18614 513 863
"3738" 6.187551 513 863
"3739" 6.189391 513 863
"3740" 6.190976 513 863
"3741" 6.192416 513 863
"3742" 6.193886 513 863
"3743" 6.195371 513 863
"3744" 6.196813 513 863
"3745" 6.198215 513 863
"3746" 6.199642 513 863
"3747" 6.201072 513 863
"3748" 6.202601 513 863
"3749" 6.204098 513 863
"3750" 6.205724 513 863
"3751" 6.217682 513 863
"3752" 6.219442 513 863
"3753" 6.22088 513 863
"3754" 6.222326 513 863
"3755" 6.223772 513 863
"3756" 6.225194 513 863
"3757" 6.226629 513 863
"3758" 6.228271 513 863
"3759" 6.229744 513 863
"3760" 6.231153 513 863
"3761" 6.232603 513 863
"3762" 6.234062 513 863
"3763" 6.235451 513 863
"3764" 6.236869 513 863
"3765" 6.238277 513 863
"3766" 6.239746 513 863
"3767" 6.241157 513 863
"3768" 6.242828 512 21
"3769" 6.244458 512 21
"3770" 6.245915 512 21
"3771" 6.247369 512 21
"3772" 6.24908 512 21
"3773" 6.250508 512 21
"3774" 6.251965 512 21
"3775" 6.253364 512 21
"3776" 6.254746 512 21
"3777" 6.256194 512 21
"3778" 6.257662 512 21
"3779" 6.259071 512 21
"3780" 6.260444 512 21
"3781" 6.261823 512 21
"3782" 6.263214 512 21
"3783" 6.26462 512 21
"3784" 6.266038 512 21
"3785" 6.26754 512 21
"3786" 6.269277 512 21
"3787" 6.270847 512 21
"3788" 6.272281 512 21
"3789" 6.273873 512 21
"3790" 6.27529 512 21
"3791" 6.276688 512 21
"3792" 6.278105 512 21
"3793" 6.279547 512 21
"3794" 6.281019 512 21
"3795" 6.282477 512 21
"3796" 6.283846 512 21
"3797" 6.285208 512 21
"3798" 6.286585 512 21
"3799" 6.288487 512 21
"3800" 6.29045 512 21
"3801" 6.292137 512 21
"3802" 6.293668 512 21
"3803" 6.295072 512 21
"3804" 6.296498 512 21
"3805" 6.297911 512 21
"3806" 6.299332 512 21
"3807" 6.300769 512 21
"3808" 6.302224 512 21
"3809" 6.303739 512 21
"3810" 6.305226 512 21
"3811" 6.306845 512 21
"3812" 6.308678 512 21
"3813" 6.310239 512 21
"3814" 6.311848 512 21
"3815" 6.313306 512 21
"3816" 6.314863 512 21
"3817" 6.316272 512 21
"3818" 6.317659 512 21
"3819" 6.319046 512 21
"3820" 6.320463 512 21
"3821" 6.321905 512 21
"3822" 6.323378 512 21
"3823" 6.324813 512 21
"3824" 6.326218 512 21
"3825" 6.327609 512 21
"3826" 6.329274 512 21
"3827" 6.330673 512 21
"3828" 6.332068 512 21
"3829" 6.33349 512 21
"3830" 6.334903 512 21
"3831" 6.336324 512 21
"3832" 6.337739 512 21
"3833" 6.33924 512 21
"3834" 6.340688 512 21
"3835" 6.342093 512 21
"3836" 6.34356 512 21
"3837" 6.345174 512 21
"3838" 6.346657 512 21
"3839" 6.348301 512 21
"3840" 6.349796 512 21
"3841" 6.351186 512 21
"3842" 6.352674 512 21
"3843" 6.354128 512 21
"3844" 6.355643 512 21
"3845" 6.357213 512 21
"3846" 6.369125 512 21
"3847" 6.370902 512 21
"3848" 6.372363 512 21
"3849" 6.373884 512 21
"3850" 6.375312 512 21
"3851" 6.376706 512 21
"3852" 6.378116 512 21
"3853" 6.379603 512 21
"3854" 6.380989 512 21
"3855" 6.38238 512 21
"3856" 6.38377 512 21
"3857" 6.385157 512 21
"3858" 6.386618 512 21
"3859" 6.388282 512 21
"3860" 6.389875 512 21
"3861" 6.391299 512 21
"3862" 6.3927 512 21
"3863" 6.394104 512 21
"3864" 6.395613 512 21
"3865" 6.397035 512 21
"3866" 6.398437 512 21
"3867" 6.399835 512 21
"3868" 6.401249 512 21
"3869" 6.402636 512 21
"3870" 6.404284 512 920
"3871" 6.406227 512 912
"3872" 6.408015 512 912
"3873" 6.40986 512 912
"3874" 6.411407 512 912
"3875" 6.412881 512 912
"3876" 6.414274 512 912
"3877" 6.415794 512 912
"3878" 6.417253 512 912
"3879" 6.418648 512 912
"3880" 6.420315 512 912
"3881" 6.422398 512 912
"3882" 6.424189 512 912
"3883" 6.425776 512 912
"3884" 6.427257 512 912
"3885" 6.428943 512 912
"3886" 6.430405 512 912
"3887" 6.431839 512 912
"3888" 6.433322 512 912
"3889" 6.434724 512 912
"3890" 6.436152 512 912
"3891" 6.437658 512 912
"3892" 6.4391 512 912
"3893" 6.440585 512 912
"3894" 6.441976 512 912
"3895" 6.443378 512 912
"3896" 6.444767 512 912
"3897" 6.44615 512 912
"3898" 6.447531 512 912
"3899" 6.449162 512 912
"3900" 6.450605 512 912
"3901" 6.45202 512 912
"3902" 6.453517 512 912
"3903" 6.454965 512 912
"3904" 6.456456 512 912
"3905" 6.457895 512 912
"3906" 6.459317 512 912
"3907" 6.460691 512 912
"3908" 6.46207 512 912
"3909" 6.463444 512 912
"3910" 6.464848 512 912
"3911" 6.466246 512 912
"3912" 6.4679 512 912
"3913" 6.469597 512 912
"3914" 6.47101 512 912
"3915" 6.472424 512 912
"3916" 6.473855 512 912
"3917" 6.475332 512 912
"3918" 6.476783 512 912
"3919" 6.47816 512 912
"3920" 6.479527 512 912
"3921" 6.480896 512 912
"3922" 6.48262 512 912
"3923" 6.484224 512 912
"3924" 6.485665 512 912
"3925" 6.487093 512 912
"3926" 6.488743 512 912
"3927" 6.490333 512 912
"3928" 6.491763 512 912
"3929" 6.493141 512 912
"3930" 6.494523 512 912
"3931" 6.495919 512 912
"3932" 6.49729 512 912
"3933" 6.49874 512 912
"3934" 6.500175 512 912
"3935" 6.501987 512 912
"3936" 6.50338 512 912
"3937" 6.504776 512 912
"3938" 6.506216 512 912
"3939" 6.507785 512 912
"3940" 6.519842 512 912
"3941" 6.521413 512 912
"3942" 6.52285 512 912
"3943" 6.524288 512 912
"3944" 6.525678 512 912
"3945" 6.527065 512 912
"3946" 6.528654 512 912
"3947" 6.53016 512 912
"3948" 6.531624 512 912
"3949" 6.533121 512 912
"3950" 6.534604 512 912
"3951" 6.536164 512 912
"3952" 6.537663 512 912
"3953" 6.539101 512 912
"3954" 6.540706 512 912
"3955" 6.54217 512 912
"3956" 6.543716 512 912
"3957" 6.545141 512 912
"3958" 6.546564 512 912
"3959" 6.548147 512 912
"3960" 6.549699 512 912
"3961" 6.551142 512 912
"3962" 6.552528 512 912
"3963" 6.553914 512 912
"3964" 6.555402 512 912
"3965" 6.55693 512 912
"3966" 6.558456 512 912
"3967" 6.559897 512 912
"3968" 6.561526 512 121
"3969" 6.563183 512 121
"3970" 6.564605 512 121
"3971" 6.566052 512 121
"3972" 6.567523 512 121
"3973" 6.569183 512 121
"3974" 6.57063 512 121
"3975" 6.57213 512 121
"3976" 6.573689 512 121
"3977" 6.57513 512 121
"3978" 6.57654 512 121
"3979" 6.577961 512 121
"3980" 6.579352 512 121
"3981" 6.580743 512 121
"3982" 6.582145 512 121
"3983" 6.583522 512 121
"3984" 6.585015 512 121
"3985" 6.586416 512 121
"3986" 6.588135 512 121
"3987" 6.589705 512 121
"3988" 6.591225 512 121
"3989" 6.592777 512 121
"3990" 6.594179 512 121
"3991" 6.595564 512 121
"3992" 6.596948 512 121
"3993" 6.598325 512 121
"3994" 6.599695 512 121
"3995" 6.601075 512 121
"3996" 6.602462 512 121
"3997" 6.603872 512 121
"3998" 6.60525 512 121
"3999" 6.606735 512 121
"4000" 6.608535 512 121
"4001" 6.610075 512 121
"4002" 6.611475 512 121
"4003" 6.612871 512 121
"4004" 6.614269 512 121
"4005" 6.615658 512 121
"4006" 6.617053 512 121
"4007" 6.618442 512 121
"4008" 6.619935 512 121
"4009" 6.621414 512 121
"4010" 6.62293 512 121
"4011" 6.624487 512 121
"4012" 6.62597 512 121
"4013" 6.627398 512 121
"4014" 6.629044 512 121
"4015" 6.630497 512 121
"4016" 6.631895 512 121
"4017" 6.633417 512 121
"4018" 6.635028 512 121
"4019" 6.636704 512 121
"4020" 6.63826 512 121
"4021" 6.639846 512 121
"4022" 6.641334 512 121
"4023" 6.642832 512 121
"4024" 6.644308 512 121
"4025" 6.645742 512 121
"4026" 6.647127 512 121
"4027" 6.648761 512 121
"4028" 6.650241 512 121
"4029" 6.65173 512 121
"4030" 6.653187 512 121
"4031" 6.654641 512 121
"4032" 6.656187 512 121
"4033" 6.657803 512 121
"4034" 6.669639 512 121
"4035" 6.671358 512 121
"4036" 6.67302 512 121
"4037" 6.674603 512 121
"4038" 6.676054 512 121
"4039" 6.677461 512 121
"4040" 6.678855 512 121
"4041" 6.680254 512 121
"4042" 6.681643 512 121
"4043" 6.683064 512 121
"4044" 6.684477 512 121
"4045" 6.685873 512 121
"4046" 6.68737 512 121
"4047" 6.689214 512 121
"4048" 6.690807 512 121
"4049" 6.692212 512 121
"4050" 6.693632 512 121
"4051" 6.695016 512 121
"4052" 6.696419 512 121
"4053" 6.697819 512 121
"4054" 6.699204 512 121
"4055" 6.700604 512 121
"4056" 6.702115 512 121
"4057" 6.703548 512 121
"4058" 6.704991 512 121
"4059" 6.706653 512 121
"4060" 6.708443 512 121
"4061" 6.709983 512 121
"4062" 6.711785 513 878
"4063" 6.713371 513 878
"4064" 6.714771 513 878
"4065" 6.716154 513 878
"4066" 6.717524 513 878
"4067" 6.718911 513 878
"4068" 6.720444 513 878
"4069" 6.722177 513 878
"4070" 6.724295 513 878
"4071" 6.726019 513 878
"4072" 6.727836 513 878
"4073" 6.729924 513 878
"4074" 6.731688 513 878
"4075" 6.733332 513 878
"4076" 6.735024 513 878
"4077" 6.736836 513 878
"4078" 6.73841 513 878
"4079" 6.739956 513 878
"4080" 6.741469 513 878
"4081" 6.74293 513 878
"4082" 6.744389 513 878
"4083" 6.745905 513 878
"4084" 6.747298 513 878
"4085" 6.749002 513 878
"4086" 6.750909 513 878
"4087" 6.752725 513 878
"4088" 6.754343 513 878
"4089" 6.755911 513 878
"4090" 6.757514 513 878
"4091" 6.758951 513 878
"4092" 6.76038 513 878
"4093" 6.761893 513 878
"4094" 6.763623 513 878
"4095" 6.765229 513 878
"4096" 6.766848 513 878
"4097" 6.768593 513 878
"4098" 6.77056 513 878
"4099" 6.772243 513 878
"4100" 6.773958 513 878
"4101" 6.775756 513 878
"4102" 6.777428 513 878
"4103" 6.778965 513 878
"4104" 6.780466 513 878
"4105" 6.781962 513 878
"4106" 6.783442 513 878
"4107" 6.78487 513 878
"4108" 6.786428 513 878
"4109" 6.788105 513 878
"4110" 6.789632 513 878
"4111" 6.791091 513 878
"4112" 6.792512 513 878
"4113" 6.79395 513 878
"4114" 6.795354 513 878
"4115" 6.796751 513 878
"4116" 6.798151 513 878
"4117" 6.799721 513 878
"4118" 6.80111 513 878
"4119" 6.802543 513 878
"4120" 6.803978 513 878
"4121" 6.805362 513 878
"4122" 6.80681 513 878
"4123" 6.808537 513 878
"4124" 6.820735 513 878
"4125" 6.822381 513 878
"4126" 6.824234 513 878
"4127" 6.825789 513 878
"4128" 6.827338 513 878
"4129" 6.829158 513 878
"4130" 6.83069 513 878
"4131" 6.832171 513 878
"4132" 6.833549 513 878
"4133" 6.834932 513 878
"4134" 6.836318 513 878
"4135" 6.837698 513 878
"4136" 6.839126 513 878
"4137" 6.840693 513 878
"4138" 6.842117 513 878
"4139" 6.843599 513 878
"4140" 6.845149 513 878
"4141" 6.846589 513 878
"4142" 6.848233 513 878
"4143" 6.849633 513 878
"4144" 6.851027 513 878
"4145" 6.852397 513 878
"4146" 6.853791 513 878
"4147" 6.855511 514 19
"4148" 6.857341 514 19
"4149" 6.858877 514 19
"4150" 6.860276 514 19
"4151" 6.861728 514 19
"4152" 6.863245 514 19
"4153" 6.864729 514 19
"4154" 6.866252 514 19
"4155" 6.867676 514 19
"4156" 6.869308 514 19
"4157" 6.870862 514 19
"4158" 6.87262 514 19
"4159" 6.874322 514 19
"4160" 6.875871 514 19
"4161" 6.877343 514 19
"4162" 6.878746 514 19
"4163" 6.880155 514 19
"4164" 6.881634 514 19
"4165" 6.883043 514 19
"4166" 6.884469 514 19
"4167" 6.885943 514 19
"4168" 6.887335 514 19
"4169" 6.889054 514 19
"4170" 6.890887 514 19
"4171" 6.892416 514 19
"4172" 6.89391 514 19
"4173" 6.895642 514 19
"4174" 6.897168 514 19
"4175" 6.898572 514 19
"4176" 6.899958 514 19
"4177" 6.901369 514 19
"4178" 6.902794 514 19
"4179" 6.9042 514 19
"4180" 6.905604 514 19
"4181" 6.90712 514 19
"4182" 6.908824 514 19
"4183" 6.910352 514 19
"4184" 6.911803 514 19
"4185" 6.91328 514 19
"4186" 6.914772 514 19
"4187" 6.916303 514 19
"4188" 6.917815 514 19
"4189" 6.919265 514 19
"4190" 6.920761 514 19
"4191" 6.922348 514 19
"4192" 6.924069 514 19
"4193" 6.925642 514 19
"4194" 6.927131 514 19
"4195" 6.928905 514 19
"4196" 6.930458 514 19
"4197" 6.931914 514 19
"4198" 6.933424 514 19
"4199" 6.934962 514 19
"4200" 6.93635 514 19
"4201" 6.937766 514 19
"4202" 6.939347 514 19
"4203" 6.940907 514 19
"4204" 6.9424 514 19
"4205" 6.943831 514 19
"4206" 6.945545 514 19
"4207" 6.947095 514 19
"4208" 6.948731 514 19
"4209" 6.950223 514 19
"4210" 6.951722 514 19
"4211" 6.953164 514 19
"4212" 6.954544 514 19
"4213" 6.955939 514 19
"4214" 6.957383 514 19
"4215" 6.958857 514 19
"4216" 6.970651 514 19
"4217" 6.972517 514 19
"4218" 6.974157 514 19
"4219" 6.97569 514 19
"4220" 6.977153 514 19
"4221" 6.978548 514 19
"4222" 6.979928 514 19
"4223" 6.981342 514 19
"4224" 6.982719 514 19
"4225" 6.984111 514 19
"4226" 6.985506 514 19
"4227" 6.986906 514 19
"4228" 6.988515 514 19
"4229" 6.990199 514 19
"4230" 6.991886 514 19
"4231" 6.993695 514 19
"4232" 6.995475 514 19
"4233" 6.997121 514 19
"4234" 6.99888 514 19
"4235" 7.00043 514 19
"4236" 7.002016 514 19
"4237" 7.003548 514 19
"4238" 7.005192 514 19
"4239" 7.006951 514 19
"4240" 7.008651 514 19
"4241" 7.010108 514 19
"4242" 7.011749 514 19
"4243" 7.013283 514 19
"4244" 7.01471 514 19
"4245" 7.016206 514 19
"4246" 7.017608 514 19
"4247" 7.019001 514 19
"4248" 7.020498 514 19
"4249" 7.022021 514 19
"4250" 7.023657 514 19
"4251" 7.0251 514 19
"4252" 7.026574 514 19
"4253" 7.028252 514 19
"4254" 7.02974 514 19
"4255" 7.031179 514 19
"4256" 7.032694 514 19
"4257" 7.034134 514 19
"4258" 7.035559 514 19
"4259" 7.036983 514 19
"4260" 7.038511 514 19
"4261" 7.040015 514 19
"4262" 7.041478 514 19
"4263" 7.042881 514 19
"4264" 7.044337 514 19
"4265" 7.045809 514 19
"4266" 7.047558 517 917
"4267" 7.049381 517 917
"4268" 7.050911 517 917
"4269" 7.052539 517 917
"4270" 7.054113 517 917
"4271" 7.055634 517 917
"4272" 7.057199 517 917
"4273" 7.058645 517 917
"4274" 7.060056 517 917
"4275" 7.061543 517 917
"4276" 7.062942 517 917
"4277" 7.064307 517 917
"4278" 7.06569 517 917
"4279" 7.067198 517 917
"4280" 7.068923 517 917
"4281" 7.070422 517 917
"4282" 7.072155 517 917
"4283" 7.07372 517 917
"4284" 7.075202 517 917
"4285" 7.076645 517 917
"4286" 7.078029 517 917
"4287" 7.079422 517 917
"4288" 7.080842 517 917
"4289" 7.082242 517 917
"4290" 7.083625 517 917
"4291" 7.085001 517 917
"4292" 7.08644 517 917
"4293" 7.088299 517 917
"4294" 7.089948 517 917
"4295" 7.091466 517 917
"4296" 7.093 517 917
"4297" 7.094471 517 917
"4298" 7.095967 517 917
"4299" 7.097404 517 917
"4300" 7.098841 517 917
"4301" 7.100267 517 917
"4302" 7.101769 517 917
"4303" 7.103249 517 917
"4304" 7.104663 517 917
"4305" 7.106073 517 917
"4306" 7.107529 517 917
"4307" 7.109253 517 917
"4308" 7.120965 517 917
"4309" 7.12284 517 917
"4310" 7.124454 517 917
"4311" 7.125873 517 917
"4312" 7.127347 517 917
"4313" 7.129113 517 917
"4314" 7.130576 517 917
"4315" 7.132062 517 917
"4316" 7.133524 517 917
"4317" 7.134945 517 917
"4318" 7.1364 517 917
"4319" 7.13787 517 917
"4320" 7.139308 517 917
"4321" 7.140865 517 917
"4322" 7.142392 517 917
"4323" 7.143831 517 917
"4324" 7.145458 517 917
"4325" 7.146883 517 917
"4326" 7.148504 517 917
"4327" 7.150051 517 917
"4328" 7.151616 517 917
"4329" 7.153095 517 917
"4330" 7.154487 517 917
"4331" 7.155885 517 917
"4332" 7.157351 517 917
"4333" 7.158823 517 917
"4334" 7.160294 517 917
"4335" 7.16169 517 917
"4336" 7.1631 517 917
"4337" 7.164499 517 917
"4338" 7.166073 517 917
"4339" 7.167608 517 19
"4340" 7.169683 521 2
"4341" 7.171285 521 2
"4342" 7.172717 521 2
"4343" 7.17422 521 2
"4344" 7.175618 521 2
"4345" 7.176998 521 2
"4346" 7.178368 521 2
"4347" 7.17976 521 2
"4348" 7.18126 521 2
"4349" 7.183053 521 2
"4350" 7.184807 521 2
"4351" 7.186326 521 2
"4352" 7.187734 521 2
"4353" 7.18934 521 2
"4354" 7.191163 521 2
"4355" 7.192678 521 2
"4356" 7.194185 521 2
"4357" 7.195749 521 2
"4358" 7.197293 521 2
"4359" 7.198768 521 2
"4360" 7.200235 521 2
"4361" 7.201732 521 2
"4362" 7.203196 521 2
"4363" 7.204717 521 2
"4364" 7.206301 521 2
"4365" 7.207802 521 2
"4366" 7.209438 521 2
"4367" 7.210848 521 2
"4368" 7.212264 521 2
"4369" 7.21381 521 2
"4370" 7.215423 521 2
"4371" 7.217034 521 2
"4372" 7.218512 521 2
"4373" 7.219893 521 2
"4374" 7.221303 521 2
"4375" 7.222696 521 2
"4376" 7.224171 521 2
"4377" 7.225568 521 2
"4378" 7.227023 521 2
"4379" 7.229133 521 2
"4380" 7.230797 521 2
"4381" 7.232324 521 2
"4382" 7.233707 521 2
"4383" 7.235106 521 2
"4384" 7.236607 521 2
"4385" 7.238149 521 2
"4386" 7.239703 521 2
"4387" 7.241208 521 2
"4388" 7.242642 521 2
"4389" 7.244119 521 2
"4390" 7.245609 521 2
"4391" 7.247121 521 2
"4392" 7.248968 521 2
"4393" 7.250505 521 2
"4394" 7.251942 521 2
"4395" 7.253479 521 2
"4396" 7.254936 521 2
"4397" 7.256378 521 2
"4398" 7.257922 521 2
"4399" 7.259591 521 2
"4400" 7.272039 521 2
"4401" 7.273917 521 2
"4402" 7.275461 521 2
"4403" 7.276897 521 2
"4404" 7.278496 521 2
"4405" 7.27993 521 2
"4406" 7.281335 521 2
"4407" 7.282807 521 2
"4408" 7.28422 521 2
"4409" 7.285844 521 2
"4410" 7.287307 521 2
"4411" 7.289041 521 2
"4412" 7.290577 521 2
"4413" 7.291993 521 2
"4414" 7.293432 521 2
"4415" 7.294885 521 2
"4416" 7.296316 521 2
"4417" 7.297761 521 2
"4418" 7.299218 521 2
"4419" 7.300601 521 2
"4420" 7.302011 521 2
"4421" 7.30342 521 2
"4422" 7.304873 521 2
"4423" 7.306427 521 2
"4424" 7.308965 526 971
"4425" 7.310784 526 971
"4426" 7.312306 526 971
"4427" 7.313723 526 971
"4428" 7.31515 526 971
"4429" 7.316562 526 971
"4430" 7.317989 526 971
"4431" 7.319401 526 971
"4432" 7.320812 526 971
"4433" 7.322228 526 971
"4434" 7.323683 526 971
"4435" 7.325126 526 971
"4436" 7.326584 526 971
"4437" 7.328265 526 971
"4438" 7.329723 526 971
"4439" 7.33117 526 971
"4440" 7.33263 526 971
"4441" 7.334009 526 971
"4442" 7.335408 526 971
"4443" 7.336777 526 971
"4444" 7.338291 526 971
"4445" 7.339905 526 971
"4446" 7.341396 526 971
"4447" 7.342785 526 971
"4448" 7.344199 526 971
"4449" 7.345655 526 971
"4450" 7.347101 526 971
"4451" 7.348705 526 971
"4452" 7.350185 526 971
"4453" 7.351642 526 971
"4454" 7.353523 526 971
"4455" 7.355385 526 971
"4456" 7.357112 526 971
"4457" 7.358615 526 971
"4458" 7.360027 526 971
"4459" 7.361418 526 971
"4460" 7.362889 526 971
"4461" 7.36427 526 971
"4462" 7.365752 526 971
"4463" 7.367238 526 971
"4464" 7.369023 526 971
"4465" 7.37051 526 971
"4466" 7.371916 526 971
"4467" 7.37333 526 971
"4468" 7.374763 526 971
"4469" 7.376172 526 971
"4470" 7.377579 526 971
"4471" 7.378947 526 971
"4472" 7.380366 526 971
"4473" 7.381814 526 971
"4474" 7.383207 526 971
"4475" 7.384629 526 971
"4476" 7.386083 526 971
"4477" 7.387697 526 971
"4478" 7.389426 526 971
"4479" 7.391096 526 971
"4480" 7.39257 526 971
"4481" 7.393947 526 971
"4482" 7.395492 526 971
"4483" 7.396974 526 971
"4484" 7.39849 526 971
"4485" 7.399958 526 971
"4486" 7.401503 526 971
"4487" 7.403072 526 971
"4488" 7.404563 526 971
"4489" 7.405965 526 971
"4490" 7.407531 526 971
"4491" 7.40911 526 971
"4492" 7.410566 526 971
"4493" 7.422267 526 971
"4494" 7.423886 526 971
"4495" 7.42554 526 971
"4496" 7.427023 526 971
"4497" 7.428623 526 971
"4498" 7.430028 526 971
"4499" 7.431434 526 971
"4500" 7.432875 526 971
"4501" 7.434489 526 971
"4502" 7.436324 526 971
"4503" 7.43808 531 0
"4504" 7.439645 531 0
"4505" 7.441259 531 0
"4506" 7.442736 531 0
"4507" 7.444144 531 0
"4508" 7.445573 531 0
"4509" 7.446996 531 0
"4510" 7.448784 531 0
"4511" 7.45026 531 0
"4512" 7.451647 531 0
"4513" 7.453028 531 0
"4514" 7.45441 531 0
"4515" 7.455838 531 0
"4516" 7.457291 531 0
"4517" 7.4587 531 0
"4518" 7.460099 531 0
"4519" 7.461546 531 0
"4520" 7.462937 531 0
"4521" 7.464425 531 0
"4522" 7.465902 531 0
"4523" 7.46738 531 0
"4524" 7.469023 531 0
"4525" 7.47059 531 0
"4526" 7.472046 531 0
"4527" 7.473615 531 0
"4528" 7.475177 531 0
"4529" 7.476602 531 0
"4530" 7.478014 531 0
"4531" 7.479487 531 0
"4532" 7.480891 531 0
"4533" 7.482303 531 0
"4534" 7.483706 531 0
"4535" 7.485094 531 0
"4536" 7.486514 531 0
"4537" 7.488132 531 0
"4538" 7.489598 531 0
"4539" 7.491114 531 0
"4540" 7.492685 531 0
"4541" 7.494144 531 0
"4542" 7.495693 531 0
"4543" 7.497516 531 0
"4544" 7.499143 531 0
"4545" 7.500661 531 0
"4546" 7.502677 531 0
"4547" 7.504215 531 0
"4548" 7.505718 531 0
"4549" 7.50729 531 0
"4550" 7.509077 531 0
"4551" 7.510567 531 0
"4552" 7.511983 531 0
"4553" 7.513438 531 0
"4554" 7.514826 531 0
"4555" 7.516229 531 0
"4556" 7.517698 531 0
"4557" 7.519132 531 0
"4558" 7.52071 531 0
"4559" 7.522224 531 0
"4560" 7.52386 531 0
"4561" 7.525386 531 0
"4562" 7.526776 531 0
"4563" 7.528348 531 0
"4564" 7.529772 531 0
"4565" 7.531189 531 0
"4566" 7.53265 531 0
"4567" 7.534027 531 0
"4568" 7.535405 531 0
"4569" 7.536826 531 0
"4570" 7.538216 531 0
"4571" 7.539611 531 0
"4572" 7.54113 531 0
"4573" 7.542723 531 0
"4574" 7.544142 531 0
"4575" 7.545544 531 0
"4576" 7.546979 531 0
"4577" 7.548651 531 0
"4578" 7.550061 531 0
"4579" 7.551491 531 0
"4580" 7.552988 531 0
"4581" 7.554455 531 0
"4582" 7.555879 531 0
"4583" 7.557381 531 0
"4584" 7.558902 531 0
"4585" 7.560422 531 0
"4586" 7.562029 531 0
"4587" 7.57381 531 0
"4588" 7.575714 531 0
"4589" 7.577368 531 0
"4590" 7.578858 531 0
"4591" 7.58026 531 0
"4592" 7.581657 531 0
"4593" 7.583042 531 0
"4594" 7.584451 531 0
"4595" 7.585841 531 0
"4596" 7.587246 531 0
"4597" 7.589166 531 0
"4598" 7.591092 531 0
"4599" 7.593054 531 0
"4600" 7.594738 531 0
"4601" 7.596316 531 0
"4602" 7.597833 532 948
"4603" 7.599481 537 930
"4604" 7.60107 537 930
"4605" 7.602559 537 930
"4606" 7.604065 537 930
"4607" 7.60577 537 930
"4608" 7.607497 537 930
"4609" 7.609308 537 930
"4610" 7.610804 537 930
"4611" 7.612293 537 930
"4612" 7.613733 537 930
"4613" 7.615256 537 930
"4614" 7.616781 537 930
"4615" 7.618174 537 930
"4616" 7.619591 537 930
"4617" 7.620993 537 930
"4618" 7.622519 537 930
"4619" 7.62422 537 930
"4620" 7.625852 537 930
"4621" 7.627485 537 930
"4622" 7.629252 537 930
"4623" 7.630745 537 930
"4624" 7.632158 537 930
"4625" 7.633587 537 930
"4626" 7.634997 537 930
"4627" 7.636399 537 930
"4628" 7.638028 537 930
"4629" 7.639567 537 930
"4630" 7.641081 537 930
"4631" 7.642488 537 930
"4632" 7.643887 537 930
"4633" 7.64548 537 930
"4634" 7.646951 537 930
"4635" 7.648582 537 930
"4636" 7.649977 537 930
"4637" 7.651355 537 930
"4638" 7.652728 537 930
"4639" 7.654113 537 930
"4640" 7.655528 537 930
"4641" 7.657094 537 930
"4642" 7.658708 537 930
"4643" 7.660196 537 930
"4644" 7.661596 537 930
"4645" 7.662972 537 930
"4646" 7.664356 537 930
"4647" 7.665763 537 930
"4648" 7.667153 537 930
"4649" 7.66879 537 930
"4650" 7.670183 537 930
"4651" 7.671563 537 930
"4652" 7.672965 537 930
"4653" 7.674454 537 930
"4654" 7.67591 537 930
"4655" 7.677293 537 930
"4656" 7.678649 537 930
"4657" 7.680025 537 930
"4658" 7.681387 537 930
"4659" 7.682767 537 930
"4660" 7.684242 537 930
"4661" 7.685825 537 930
"4662" 7.687403 537 930
"4663" 7.689124 537 930
"4664" 7.690621 537 930
"4665" 7.692055 537 930
"4666" 7.693443 537 930
"4667" 7.69484 537 930
"4668" 7.696313 537 930
"4669" 7.697854 537 930
"4670" 7.699276 537 930
"4671" 7.70073 537 930
"4672" 7.702223 537 930
"4673" 7.703624 537 930
"4674" 7.70506 537 930
"4675" 7.706538 537 930
"4676" 7.708177 537 930
"4677" 7.709613 537 930
"4678" 7.711088 537 930
"4679" 7.712783 537 930
"4680" 7.725214 537 930
"4681" 7.72683 537 930
"4682" 7.728556 537 930
"4683" 7.730023 537 930
"4684" 7.731395 537 930
"4685" 7.732762 537 930
"4686" 7.73421 537 930
"4687" 7.735735 537 930
"4688" 7.737221 537 930
"4689" 7.738697 537 930
"4690" 7.740142 537 930
"4691" 7.741593 537 930
"4692" 7.743034 537 930
"4693" 7.74456 537 930
"4694" 7.746109 537 930
"4695" 7.747736 537 930
"4696" 7.749484 537 930
"4697" 7.750929 537 930
"4698" 7.752451 540 19
"4699" 7.754135 542 32
"4700" 7.755656 542 32
"4701" 7.757173 542 32
"4702" 7.758678 542 32
"4703" 7.760105 542 32
"4704" 7.761487 542 32
"4705" 7.762964 542 32
"4706" 7.764453 542 32
"4707" 7.765937 542 32
"4708" 7.76735 542 32
"4709" 7.768882 542 32
"4710" 7.770516 542 32
"4711" 7.771947 542 32
"4712" 7.773441 542 32
"4713" 7.774921 542 32
"4714" 7.776321 542 32
"4715" 7.777755 542 32
"4716" 7.779143 542 32
"4717" 7.780617 542 32
"4718" 7.782037 542 32
"4719" 7.783437 542 32
"4720" 7.784832 542 32
"4721" 7.786254 542 32
"4722" 7.787679 542 32
"4723" 7.789342 542 32
"4724" 7.790811 542 32
"4725" 7.792318 542 32
"4726" 7.793815 542 32
"4727" 7.795435 542 32
"4728" 7.796941 542 32
"4729" 7.798364 542 32
"4730" 7.799774 542 32
"4731" 7.801269 542 32
"4732" 7.80267 542 32
"4733" 7.80406 542 32
"4734" 7.805422 542 32
"4735" 7.80684 542 32
"4736" 7.808551 542 32
"4737" 7.810094 542 32
"4738" 7.811579 542 32
"4739" 7.813305 542 32
"4740" 7.814851 542 32
"4741" 7.816246 542 32
"4742" 7.817627 542 32
"4743" 7.819196 542 32
"4744" 7.820841 542 32
"4745" 7.82235 542 32
"4746" 7.82383 542 32
"4747" 7.825555 542 32
"4748" 7.827038 542 32
"4749" 7.828677 542 32
"4750" 7.830189 542 32
"4751" 7.831664 542 32
"4752" 7.833091 542 32
"4753" 7.834581 542 32
"4754" 7.835985 542 32
"4755" 7.837384 542 32
"4756" 7.838868 542 32
"4757" 7.840304 542 32
"4758" 7.841772 542 32
"4759" 7.843188 542 32
"4760" 7.844711 542 32
"4761" 7.846161 542 32
"4762" 7.84761 542 32
"4763" 7.849281 542 32
"4764" 7.850784 542 32
"4765" 7.852229 542 32
"4766" 7.853646 542 32
"4767" 7.855054 542 32
"4768" 7.856497 542 32
"4769" 7.858078 542 32
"4770" 7.859542 542 32
"4771" 7.86094 542 32
"4772" 7.862354 542 32
"4773" 7.863866 542 32
"4774" 7.875768 542 32
"4775" 7.877484 542 32
"4776" 7.87903 542 32
"4777" 7.880483 542 32
"4778" 7.881874 542 32
"4779" 7.883296 542 32
"4780" 7.884793 542 32
"4781" 7.886336 542 32
"4782" 7.887805 542 32
"4783" 7.889431 542 32
"4784" 7.890946 542 32
"4785" 7.892483 542 32
"4786" 7.893904 542 32
"4787" 7.895575 542 32
"4788" 7.897058 542 32
"4789" 7.898491 542 32
"4790" 7.899889 542 32
"4791" 7.901428 542 32
"4792" 7.902855 542 32
"4793" 7.904249 542 32
"4794" 7.905686 542 32
"4795" 7.907418 546 894
"4796" 7.909362 546 894
"4797" 7.910811 546 894
"4798" 7.912259 546 894
"4799" 7.913692 546 894
"4800" 7.915077 546 894
"4801" 7.916519 546 894
"4802" 7.918005 546 894
"4803" 7.9194 546 894
"4804" 7.920837 546 894
"4805" 7.922249 546 894
"4806" 7.923657 546 894
"4807" 7.92509 546 894
"4808" 7.926462 546 894
"4809" 7.928023 546 894
"4810" 7.929482 546 894
"4811" 7.930862 546 894
"4812" 7.932425 546 894
"4813" 7.934058 546 894
"4814" 7.935611 546 894
"4815" 7.937105 546 894
"4816" 7.938742 546 894
"4817" 7.940236 546 894
"4818" 7.941727 546 894
"4819" 7.943237 546 894
"4820" 7.944755 546 894
"4821" 7.946207 546 894
"4822" 7.947679 546 894
"4823" 7.949685 546 894
"4824" 7.951265 546 894
"4825" 7.952811 546 894
"4826" 7.954356 546 894
"4827" 7.955861 546 894
"4828" 7.957445 546 894
"4829" 7.959058 546 894
"4830" 7.960497 546 894
"4831" 7.961941 546 894
"4832" 7.963402 546 894
"4833" 7.964866 546 894
"4834" 7.966323 546 894
"4835" 7.967759 546 894
"4836" 7.969626 546 894
"4837" 7.971213 546 894
"4838" 7.972649 546 894
"4839" 7.974065 546 894
"4840" 7.975539 546 894
"4841" 7.977015 546 894
"4842" 7.978401 546 894
"4843" 7.979766 546 894
"4844" 7.981134 546 894
"4845" 7.982539 546 894
"4846" 7.983998 546 894
"4847" 7.9854 546 894
"4848" 7.986891 546 894
"4849" 7.988582 546 894
"4850" 7.990068 546 894
"4851" 7.991648 546 894
"4852" 7.99318 546 894
"4853" 7.9946 546 894
"4854" 7.995991 546 894
"4855" 7.997446 546 894
"4856" 7.998941 546 894
"4857" 8.000341 546 894
"4858" 8.002042 546 894
"4859" 8.003646 546 894
"4860" 8.005113 546 894
"4861" 8.006582 546 894
"4862" 8.008331 546 894
"4863" 8.009869 546 894
"4864" 8.011365 546 894
"4865" 8.012764 546 894
"4866" 8.014244 546 894
"4867" 8.026062 546 894
"4868" 8.027621 546 894
"4869" 8.029294 546 894
"4870" 8.030797 546 894
"4871" 8.0323 546 894
"4872" 8.033731 546 894
"4873" 8.035192 547 873
"4874" 8.036906 549 14
"4875" 8.03841 549 14
"4876" 8.039812 549 14
"4877" 8.041345 549 14
"4878" 8.042778 549 14
"4879" 8.044175 549 14
"4880" 8.045661 549 14
"4881" 8.047105 549 14
"4882" 8.048855 549 14
"4883" 8.050267 549 14
"4884" 8.051662 549 14
"4885" 8.053148 549 14
"4886" 8.054746 549 14
"4887" 8.056565 549 14
"4888" 8.058311 549 14
"4889" 8.059934 549 14
"4890" 8.061563 549 14
"4891" 8.063185 549 14
"4892" 8.064796 549 14
"4893" 8.066313 549 14
"4894" 8.067771 549 14
"4895" 8.069935 549 14
"4896" 8.071578 549 14
"4897" 8.073074 549 14
"4898" 8.074716 549 14
"4899" 8.076217 549 14
"4900" 8.077606 549 14
"4901" 8.078972 549 14
"4902" 8.080506 549 14
"4903" 8.082008 549 14
"4904" 8.083434 549 14
"4905" 8.084826 549 14
"4906" 8.086213 549 14
"4907" 8.087618 549 14
"4908" 8.089298 549 14
"4909" 8.090872 549 14
"4910" 8.09234 549 14
"4911" 8.093744 549 14
"4912" 8.095398 549 14
"4913" 8.09691 549 14
"4914" 8.098317 549 14
"4915" 8.099702 549 14
"4916" 8.101092 549 14
"4917" 8.102461 549 14
"4918" 8.10384 549 14
"4919" 8.105248 549 14
"4920" 8.106657 549 14
"4921" 8.108316 549 14
"4922" 8.109934 549 14
"4923" 8.11154 549 14
"4924" 8.112971 549 14
"4925" 8.114401 549 14
"4926" 8.115804 549 14
"4927" 8.117196 549 14
"4928" 8.118629 549 14
"4929" 8.120016 549 14
"4930" 8.121387 549 14
"4931" 8.12279 549 14
"4932" 8.124285 549 14
"4933" 8.125736 549 14
"4934" 8.127243 549 14
"4935" 8.128922 549 14
"4936" 8.130442 549 14
"4937" 8.131851 549 14
"4938" 8.133297 549 14
"4939" 8.1347 549 14
"4940" 8.136102 549 14
"4941" 8.137486 549 14
"4942" 8.138879 549 14
"4943" 8.140327 549 14
"4944" 8.141856 549 14
"4945" 8.143363 549 14
"4946" 8.14496 549 14
"4947" 8.146442 549 14
"4948" 8.148046 549 14
"4949" 8.149439 549 14
"4950" 8.150835 549 14
"4951" 8.152333 549 14
"4952" 8.153805 549 14
"4953" 8.155201 549 14
"4954" 8.156677 549 14
"4955" 8.158184 549 14
"4956" 8.159624 549 14
"4957" 8.161064 549 14
"4958" 8.162525 549 14
"4959" 8.163983 549 14
"4960" 8.165428 549 14
"4961" 8.177597 549 14
"4962" 8.1794 549 14
"4963" 8.180838 549 14
"4964" 8.182274 549 14
"4965" 8.183681 549 14
"4966" 8.185328 549 14
"4967" 8.186975 549 14
"4968" 8.188873 549 14
"4969" 8.19052 549 14
"4970" 8.192111 549 14
"4971" 8.193563 549 14
"4972" 8.194956 549 14
"4973" 8.196392 549 14
"4974" 8.197847 549 14
"4975" 8.1993 549 14
"4976" 8.200693 549 14
"4977" 8.202074 549 14
"4978" 8.203439 549 14
"4979" 8.204827 549 14
"4980" 8.206223 549 14
"4981" 8.207771 549 14
"4982" 8.20955 549 14
"4983" 8.210975 549 14
"4984" 8.212379 549 14
"4985" 8.213791 549 14
"4986" 8.215288 549 14
"4987" 8.216968 552 912
"4988" 8.218622 552 912
"4989" 8.220348 552 912
"4990" 8.221948 552 912
"4991" 8.223431 552 912
"4992" 8.224951 552 912
"4993" 8.226431 552 912
"4994" 8.228156 552 912
"4995" 8.229718 552 912
"4996" 8.231142 552 912
"4997" 8.232529 552 912
"4998" 8.233967 552 912
"4999" 8.235443 552 912
"5000" 8.236855 552 912
"5001" 8.238241 552 912
"5002" 8.239611 552 912
"5003" 8.241062 552 912
"5004" 8.242575 552 912
"5005" 8.24397 552 912
"5006" 8.245396 552 912
"5007" 8.246791 552 912
"5008" 8.248466 552 912
"5009" 8.249871 552 912
"5010" 8.251283 552 912
"5011" 8.252818 552 912
"5012" 8.254333 552 912
"5013" 8.255845 552 912
"5014" 8.257378 552 912
"5015" 8.258842 552 912
"5016" 8.260335 552 912
"5017" 8.261772 552 912
"5018" 8.263268 552 912
"5019" 8.264732 552 912
"5020" 8.266225 552 912
"5021" 8.267727 552 912
"5022" 8.269343 552 912
"5023" 8.270821 552 912
"5024" 8.272327 552 912
"5025" 8.273907 552 912
"5026" 8.275445 552 912
"5027" 8.276842 552 912
"5028" 8.278297 552 912
"5029" 8.279744 552 912
"5030" 8.281119 552 912
"5031" 8.282501 552 912
"5032" 8.2839 552 912
"5033" 8.285291 552 912
"5034" 8.286703 552 912
"5035" 8.288296 552 912
"5036" 8.289698 552 912
"5037" 8.291275 552 912
"5038" 8.292792 552 912
"5039" 8.294283 552 912
"5040" 8.295712 552 912
"5041" 8.297206 552 912
"5042" 8.298814 552 912
"5043" 8.300423 552 912
"5044" 8.301898 552 912
"5045" 8.303302 552 912
"5046" 8.304813 552 912
"5047" 8.306268 552 912
"5048" 8.307812 552 912
"5049" 8.309549 552 912
"5050" 8.311087 552 912
"5051" 8.313033 552 912
"5052" 8.314594 552 912
"5053" 8.316126 552 912
"5054" 8.328101 552 912
"5055" 8.329809 552 912
"5056" 8.331297 552 912
"5057" 8.332771 552 912
"5058" 8.334149 552 912
"5059" 8.335582 552 912
"5060" 8.337043 552 912
"5061" 8.33857 552 912
"5062" 8.340071 552 912
"5063" 8.341749 552 912
"5064" 8.343472 552 912
"5065" 8.345059 552 912
"5066" 8.346646 552 912
"5067" 8.348308 552 912
"5068" 8.349756 552 912
"5069" 8.35128 552 912
"5070" 8.352715 552 912
"5071" 8.354226 552 912
"5072" 8.355719 552 912
"5073" 8.35717 552 912
"5074" 8.358714 552 912
"5075" 8.360205 552 912
"5076" 8.361624 552 912
"5077" 8.36327 554 5
"5078" 8.364926 554 5
"5079" 8.366429 554 5
"5080" 8.368037 554 5
"5081" 8.369445 554 5
"5082" 8.370842 554 5
"5083" 8.372248 554 5
"5084" 8.373848 554 5
"5085" 8.375366 554 5
"5086" 8.376812 554 5
"5087" 8.378222 554 5
"5088" 8.379602 554 5
"5089" 8.381021 554 5
"5090" 8.382415 554 5
"5091" 8.383813 554 5
"5092" 8.385233 554 5
"5093" 8.386748 554 5
"5094" 8.388433 554 5
"5095" 8.389848 554 5
"5096" 8.391387 554 5
"5097" 8.392953 554 5
"5098" 8.394419 554 5
"5099" 8.395884 554 5
"5100" 8.397252 554 5
"5101" 8.398617 554 5
"5102" 8.399981 554 5
"5103" 8.401385 554 5
"5104" 8.402809 554 5
"5105" 8.404224 554 5
"5106" 8.4056 554 5
"5107" 8.406988 554 5
"5108" 8.408672 554 5
